
theta(h[:])	 h[0]	 h[1]	 <m[0]>	 <m[1]>	 <E>	 dim_{Lat}=2	 L=128,128	 J=1.000000,1.000000	 {/Symbol s}_J=0.000000,0.000000	 <J_{ij}>=0.000000,0.000000	 dim_(Spin}=2	 h=-,0.000000	 {/Symbol s}_h=0.500000,0.000000	 <h_i>=-0.001376,0.000000	 order=1.000000,0.000000	 order_h=0	 order_r=1	 MCS/{/Symbol d}h=1/0.000100	 

Updating all (first)black/(then)white checkerboard sites simultaneously.. 
0.000000	 0.250000	 0.000000	 1.000000	 -0.000000	 -2.248624	 
0.000100	 0.250000	 0.000157	 0.999999	 0.001194	 -2.248624	 
0.000200	 0.250000	 0.000314	 0.999996	 0.002388	 -2.248624	 
0.000300	 0.250000	 0.000471	 0.999992	 0.003581	 -2.248624	 
0.000400	 0.249999	 0.000628	 0.999985	 0.004775	 -2.248624	 
0.000500	 0.249999	 0.000785	 0.999977	 0.005968	 -2.248625	 
0.000600	 0.249998	 0.000942	 0.999967	 0.007161	 -2.248625	 
0.000700	 0.249998	 0.001100	 0.999954	 0.008354	 -2.248626	 
0.000800	 0.249997	 0.001257	 0.999941	 0.009546	 -2.248627	 
0.000900	 0.249996	 0.001414	 0.999925	 0.010738	 -2.248627	 
0.001000	 0.249995	 0.001571	 0.999907	 0.011930	 -2.248628	 
0.001100	 0.249994	 0.001728	 0.999888	 0.013121	 -2.248629	 
0.001200	 0.249993	 0.001885	 0.999866	 0.014312	 -2.248630	 
0.001300	 0.249992	 0.002042	 0.999843	 0.015502	 -2.248631	 
0.001400	 0.249990	 0.002199	 0.999818	 0.016692	 -2.248632	 
0.001500	 0.249989	 0.002356	 0.999792	 0.017881	 -2.248634	 
0.001600	 0.249987	 0.002513	 0.999763	 0.019069	 -2.248635	 
0.001700	 0.249986	 0.002670	 0.999733	 0.020257	 -2.248637	 
0.001800	 0.249984	 0.002827	 0.999701	 0.021444	 -2.248638	 
0.001900	 0.249982	 0.002984	 0.999667	 0.022630	 -2.248640	 
0.002000	 0.249980	 0.003142	 0.999631	 0.023815	 -2.248641	 
0.002100	 0.249978	 0.003299	 0.999594	 0.025000	 -2.248643	 
0.002200	 0.249976	 0.003456	 0.999554	 0.026183	 -2.248645	 
0.002300	 0.249974	 0.003613	 0.999513	 0.027366	 -2.248647	 
0.002400	 0.249972	 0.003770	 0.999471	 0.028548	 -2.248649	 
0.002500	 0.249969	 0.003927	 0.999426	 0.029729	 -2.248651	 
0.002600	 0.249967	 0.004084	 0.999380	 0.030909	 -2.248654	 
0.002700	 0.249964	 0.004241	 0.999332	 0.032088	 -2.248656	 
0.002800	 0.249961	 0.004398	 0.999282	 0.033267	 -2.248658	 
0.002900	 0.249958	 0.004555	 0.999231	 0.034444	 -2.248661	 
0.003000	 0.249956	 0.004712	 0.999178	 0.035620	 -2.248664	 
0.003100	 0.249953	 0.004869	 0.999123	 0.036795	 -2.248666	 
0.003200	 0.249949	 0.005026	 0.999067	 0.037969	 -2.248669	 
0.003300	 0.249946	 0.005183	 0.999009	 0.039142	 -2.248672	 
0.003400	 0.249943	 0.005340	 0.998949	 0.040314	 -2.248675	 
0.003500	 0.249940	 0.005497	 0.998888	 0.041484	 -2.248678	 
0.003600	 0.249936	 0.005654	 0.998825	 0.042654	 -2.248681	 
0.003700	 0.249932	 0.005811	 0.998760	 0.043822	 -2.248684	 
0.003800	 0.249929	 0.005968	 0.998694	 0.044990	 -2.248687	 
0.003900	 0.249925	 0.006125	 0.998626	 0.046156	 -2.248691	 
0.004000	 0.249921	 0.006283	 0.998557	 0.047321	 -2.248694	 
0.004100	 0.249917	 0.006440	 0.998485	 0.048484	 -2.248698	 
0.004200	 0.249913	 0.006597	 0.998413	 0.049647	 -2.248701	 
0.004300	 0.249909	 0.006754	 0.998338	 0.050808	 -2.248705	 
0.004400	 0.249904	 0.006911	 0.998263	 0.051968	 -2.248709	 
0.004500	 0.249900	 0.007068	 0.998185	 0.053127	 -2.248713	 
0.004600	 0.249896	 0.007225	 0.998106	 0.054285	 -2.248717	 
0.004700	 0.249891	 0.007382	 0.998026	 0.055441	 -2.248721	 
0.004800	 0.249886	 0.007539	 0.997944	 0.056596	 -2.248725	 
0.004900	 0.249882	 0.007696	 0.997860	 0.057750	 -2.248729	 
0.005000	 0.249877	 0.007853	 0.997775	 0.058903	 -2.248733	 
0.005100	 0.249872	 0.008010	 0.997688	 0.060054	 -2.248738	 
0.005200	 0.249867	 0.008167	 0.997600	 0.061204	 -2.248742	 
0.005300	 0.249861	 0.008324	 0.997511	 0.062353	 -2.248747	 
0.005400	 0.249856	 0.008481	 0.997419	 0.063500	 -2.248751	 
0.005500	 0.249851	 0.008638	 0.997327	 0.064646	 -2.248756	 
0.005600	 0.249845	 0.008795	 0.997233	 0.065791	 -2.248761	 
0.005700	 0.249840	 0.008952	 0.997137	 0.066935	 -2.248766	 
0.005800	 0.249834	 0.009109	 0.997040	 0.068077	 -2.248770	 
0.005900	 0.249828	 0.009266	 0.996942	 0.069218	 -2.248775	 
0.006000	 0.249822	 0.009423	 0.996842	 0.070357	 -2.248781	 
0.006100	 0.249816	 0.009580	 0.996741	 0.071495	 -2.248786	 
0.006200	 0.249810	 0.009736	 0.996638	 0.072632	 -2.248791	 
0.006300	 0.249804	 0.009893	 0.996534	 0.073768	 -2.248796	 
0.006400	 0.249798	 0.010050	 0.996428	 0.074902	 -2.248802	 
0.006500	 0.249792	 0.010207	 0.996321	 0.076035	 -2.248807	 
0.006600	 0.249785	 0.010364	 0.996212	 0.077166	 -2.248813	 
0.006700	 0.249779	 0.010521	 0.996103	 0.078296	 -2.248819	 
0.006800	 0.249772	 0.010678	 0.995991	 0.079425	 -2.248824	 
0.006900	 0.249765	 0.010835	 0.995879	 0.080552	 -2.248830	 
0.007000	 0.249758	 0.010992	 0.995765	 0.081678	 -2.248836	 
0.007100	 0.249751	 0.011149	 0.995650	 0.082803	 -2.248842	 
0.007200	 0.249744	 0.011306	 0.995533	 0.083926	 -2.248848	 
0.007300	 0.249737	 0.011463	 0.995415	 0.085048	 -2.248854	 
0.007400	 0.249730	 0.011620	 0.995296	 0.086169	 -2.248860	 
0.007500	 0.249722	 0.011777	 0.995175	 0.087288	 -2.248867	 
0.007600	 0.249715	 0.011934	 0.995053	 0.088406	 -2.248873	 
0.007700	 0.249707	 0.012090	 0.994930	 0.089522	 -2.248880	 
0.007800	 0.249700	 0.012247	 0.994805	 0.090637	 -2.248886	 
0.007900	 0.249692	 0.012404	 0.994679	 0.091751	 -2.248893	 
0.008000	 0.249684	 0.012561	 0.994552	 0.092863	 -2.248899	 
0.008100	 0.249676	 0.012718	 0.994423	 0.093974	 -2.248906	 
0.008200	 0.249668	 0.012875	 0.994293	 0.095083	 -2.248913	 
0.008300	 0.249660	 0.013032	 0.994162	 0.096191	 -2.248920	 
0.008400	 0.249652	 0.013189	 0.994030	 0.097298	 -2.248927	 
0.008500	 0.249644	 0.013345	 0.993896	 0.098403	 -2.248934	 
0.008600	 0.249635	 0.013502	 0.993761	 0.099507	 -2.248941	 
0.008700	 0.249627	 0.013659	 0.993625	 0.100609	 -2.248948	 
0.008800	 0.249618	 0.013816	 0.993488	 0.101711	 -2.248956	 
0.008900	 0.249609	 0.013973	 0.993349	 0.102810	 -2.248963	 
0.009000	 0.249600	 0.014130	 0.993209	 0.103909	 -2.248970	 
0.009100	 0.249591	 0.014286	 0.993068	 0.105006	 -2.248978	 
0.009200	 0.249582	 0.014443	 0.992926	 0.106101	 -2.248985	 
0.009300	 0.249573	 0.014600	 0.992782	 0.107195	 -2.248993	 
0.009400	 0.249564	 0.014757	 0.992637	 0.108288	 -2.249001	 
0.009500	 0.249555	 0.014914	 0.992491	 0.109379	 -2.249009	 
0.009600	 0.249545	 0.015071	 0.992344	 0.110469	 -2.249017	 
0.009700	 0.249536	 0.015227	 0.992196	 0.111558	 -2.249024	 
0.009800	 0.249526	 0.015384	 0.992046	 0.112645	 -2.249033	 
0.009900	 0.249516	 0.015541	 0.991895	 0.113731	 -2.249041	 
0.010000	 0.249507	 0.015698	 0.991743	 0.114815	 -2.249049	 
0.010100	 0.249497	 0.015854	 0.991590	 0.115898	 -2.249057	 
0.010200	 0.249487	 0.016011	 0.991436	 0.116980	 -2.249065	 
0.010300	 0.249477	 0.016168	 0.991281	 0.118060	 -2.249074	 
0.010400	 0.249466	 0.016325	 0.991124	 0.119139	 -2.249082	 
0.010500	 0.249456	 0.016481	 0.990966	 0.120216	 -2.249091	 
0.010600	 0.249446	 0.016638	 0.990808	 0.121292	 -2.249099	 
0.010700	 0.249435	 0.016795	 0.990648	 0.122367	 -2.249108	 
0.010800	 0.249425	 0.016952	 0.990487	 0.123440	 -2.249117	 
0.010900	 0.249414	 0.017108	 0.990324	 0.124512	 -2.249126	 
0.011000	 0.249403	 0.017265	 0.990161	 0.125582	 -2.249135	 
0.011100	 0.249392	 0.017422	 0.989997	 0.126651	 -2.249144	 
0.011200	 0.249381	 0.017578	 0.989831	 0.127719	 -2.249153	 
0.011300	 0.249370	 0.017735	 0.989664	 0.128785	 -2.249162	 
0.011400	 0.249359	 0.017892	 0.989497	 0.129850	 -2.249171	 
0.011500	 0.249348	 0.018048	 0.989328	 0.130913	 -2.249180	 
0.011600	 0.249336	 0.018205	 0.989158	 0.131975	 -2.249190	 
0.011700	 0.249325	 0.018362	 0.988987	 0.133036	 -2.249199	 
0.011800	 0.249313	 0.018518	 0.988815	 0.134095	 -2.249208	 
0.011900	 0.249302	 0.018675	 0.988642	 0.135153	 -2.249218	 
0.012000	 0.249290	 0.018832	 0.988467	 0.136210	 -2.249228	 
0.012100	 0.249278	 0.018988	 0.988292	 0.137265	 -2.249237	 
0.012200	 0.249266	 0.019145	 0.988116	 0.138319	 -2.249247	 
0.012300	 0.249254	 0.019302	 0.987938	 0.139371	 -2.249257	 
0.012400	 0.249242	 0.019458	 0.987760	 0.140422	 -2.249267	 
0.012500	 0.249229	 0.019615	 0.987580	 0.141472	 -2.249277	 
0.012600	 0.249217	 0.019771	 0.987400	 0.142520	 -2.249287	 
0.012700	 0.249204	 0.019928	 0.987218	 0.143567	 -2.249297	 
0.012800	 0.249192	 0.020085	 0.987036	 0.144613	 -2.249307	 
0.012900	 0.249179	 0.020241	 0.986852	 0.145657	 -2.249317	 
0.013000	 0.249166	 0.020398	 0.986668	 0.146700	 -2.249327	 
0.013100	 0.249154	 0.020554	 0.986482	 0.147741	 -2.249338	 
0.013200	 0.249141	 0.020711	 0.986296	 0.148781	 -2.249348	 
0.013300	 0.249128	 0.020867	 0.986108	 0.149820	 -2.249359	 
0.013400	 0.249114	 0.021024	 0.985920	 0.150857	 -2.249369	 
0.013500	 0.249101	 0.021180	 0.985730	 0.151893	 -2.249380	 
0.013600	 0.249088	 0.021337	 0.985539	 0.152927	 -2.249390	 
0.013700	 0.249074	 0.021493	 0.985348	 0.153961	 -2.249401	 
0.013800	 0.249061	 0.021650	 0.985155	 0.154992	 -2.249412	 
0.013900	 0.249047	 0.021806	 0.984962	 0.156023	 -2.249423	 
0.014000	 0.249033	 0.021963	 0.984767	 0.157052	 -2.249434	 
0.014100	 0.249020	 0.022119	 0.984572	 0.158080	 -2.249445	 
0.014200	 0.249006	 0.022276	 0.984376	 0.159106	 -2.249456	 
0.014300	 0.248992	 0.022432	 0.984178	 0.160131	 -2.249467	 
0.014400	 0.248977	 0.022589	 0.983980	 0.161155	 -2.249478	 
0.014500	 0.248963	 0.022745	 0.983781	 0.162177	 -2.249490	 
0.014600	 0.248949	 0.022901	 0.983581	 0.163198	 -2.249501	 
0.014700	 0.248934	 0.023058	 0.983380	 0.164218	 -2.249512	 
0.014800	 0.248920	 0.023214	 0.983178	 0.165236	 -2.249524	 
0.014900	 0.248905	 0.023371	 0.982975	 0.166253	 -2.249535	 
0.015000	 0.248890	 0.023527	 0.982771	 0.167269	 -2.249547	 
0.015100	 0.248876	 0.023683	 0.982566	 0.168283	 -2.249559	 
0.015200	 0.248861	 0.023840	 0.982361	 0.169296	 -2.249570	 
0.015300	 0.248846	 0.023996	 0.982154	 0.170308	 -2.249582	 
0.015400	 0.248831	 0.024153	 0.981947	 0.171318	 -2.249594	 
0.015500	 0.248815	 0.024309	 0.981738	 0.172327	 -2.249606	 
0.015600	 0.248800	 0.024465	 0.981529	 0.173334	 -2.249618	 
0.015700	 0.248785	 0.024622	 0.981319	 0.174341	 -2.249630	 
0.015800	 0.248769	 0.024778	 0.981108	 0.175346	 -2.249642	 
0.015900	 0.248753	 0.024934	 0.980896	 0.176349	 -2.249654	 
0.016000	 0.248738	 0.025090	 0.980683	 0.177351	 -2.249666	 
0.016100	 0.248722	 0.025247	 0.980469	 0.178352	 -2.249679	 
0.016200	 0.248706	 0.025403	 0.980255	 0.179352	 -2.249691	 
0.016300	 0.248690	 0.025559	 0.980039	 0.180350	 -2.249703	 
0.016400	 0.248674	 0.025715	 0.979823	 0.181347	 -2.249716	 
0.016500	 0.248658	 0.025872	 0.979606	 0.182343	 -2.249728	 
0.016600	 0.248641	 0.026028	 0.979388	 0.183337	 -2.249741	 
0.016700	 0.248625	 0.026184	 0.979169	 0.184330	 -2.249754	 
0.016800	 0.248608	 0.026340	 0.978949	 0.185322	 -2.249766	 
0.016900	 0.248592	 0.026497	 0.978729	 0.186312	 -2.249779	 
0.017000	 0.248575	 0.026653	 0.978507	 0.187301	 -2.249792	 
0.017100	 0.248558	 0.026809	 0.978285	 0.188289	 -2.249805	 
0.017200	 0.248542	 0.026965	 0.978062	 0.189276	 -2.249818	 
0.017300	 0.248525	 0.027121	 0.977838	 0.190261	 -2.249831	 
0.017400	 0.248507	 0.027277	 0.977614	 0.191245	 -2.249844	 
0.017500	 0.248490	 0.027434	 0.977388	 0.192227	 -2.249857	 
0.017600	 0.248473	 0.027590	 0.977162	 0.193209	 -2.249870	 
0.017700	 0.248456	 0.027746	 0.976935	 0.194189	 -2.249884	 
0.017800	 0.248438	 0.027902	 0.976707	 0.195167	 -2.249897	 
0.017900	 0.248421	 0.028058	 0.976478	 0.196145	 -2.249910	 
0.018000	 0.248403	 0.028214	 0.976248	 0.197121	 -2.249924	 
0.018100	 0.248385	 0.028370	 0.976018	 0.198095	 -2.249937	 
0.018200	 0.248367	 0.028526	 0.975787	 0.199069	 -2.249951	 
0.018300	 0.248349	 0.028682	 0.975555	 0.200041	 -2.249964	 
0.018400	 0.248331	 0.028838	 0.975322	 0.201012	 -2.249978	 
0.018500	 0.248313	 0.028994	 0.975089	 0.201982	 -2.249992	 
0.018600	 0.248295	 0.029150	 0.974854	 0.202950	 -2.250006	 
0.018700	 0.248276	 0.029306	 0.974619	 0.203917	 -2.250019	 
0.018800	 0.248258	 0.029462	 0.974384	 0.204883	 -2.250033	 
0.018900	 0.248239	 0.029618	 0.974147	 0.205848	 -2.250047	 
0.019000	 0.248221	 0.029774	 0.973910	 0.206811	 -2.250061	 
0.019100	 0.248202	 0.029930	 0.973671	 0.207773	 -2.250075	 
0.019200	 0.248183	 0.030086	 0.973433	 0.208734	 -2.250089	 
0.019300	 0.248164	 0.030242	 0.973193	 0.209693	 -2.250104	 
0.019400	 0.248145	 0.030398	 0.972953	 0.210651	 -2.250118	 
0.019500	 0.248126	 0.030554	 0.972711	 0.211608	 -2.250132	 
0.019600	 0.248107	 0.030710	 0.972470	 0.212564	 -2.250146	 
0.019700	 0.248087	 0.030866	 0.972227	 0.213518	 -2.250161	 
0.019800	 0.248068	 0.031022	 0.971984	 0.214471	 -2.250175	 
0.019900	 0.248048	 0.031177	 0.971739	 0.215423	 -2.250190	 
0.020000	 0.248029	 0.031333	 0.971495	 0.216374	 -2.250204	 
0.020100	 0.248009	 0.031489	 0.971249	 0.217323	 -2.250219	 
0.020200	 0.247989	 0.031645	 0.971003	 0.218271	 -2.250234	 
0.020300	 0.247969	 0.031801	 0.970756	 0.219218	 -2.250248	 
0.020400	 0.247949	 0.031957	 0.970508	 0.220164	 -2.250263	 
0.020500	 0.247929	 0.032112	 0.970260	 0.221108	 -2.250278	 
0.020600	 0.247909	 0.032268	 0.970010	 0.222052	 -2.250293	 
0.020700	 0.247888	 0.032424	 0.969761	 0.222993	 -2.250308	 
0.020800	 0.247868	 0.032580	 0.969510	 0.223934	 -2.250323	 
0.020900	 0.247848	 0.032735	 0.969259	 0.224874	 -2.250338	 
0.021000	 0.247827	 0.032891	 0.969007	 0.225812	 -2.250353	 
0.021100	 0.247806	 0.033047	 0.968754	 0.226749	 -2.250368	 
0.021200	 0.247785	 0.033202	 0.968501	 0.227685	 -2.250383	 
0.021300	 0.247764	 0.033358	 0.968247	 0.228619	 -2.250399	 
0.021400	 0.247743	 0.033514	 0.967992	 0.229552	 -2.250414	 
0.021500	 0.247722	 0.033669	 0.967737	 0.230484	 -2.250429	 
0.021600	 0.247701	 0.033825	 0.967480	 0.231415	 -2.250445	 
0.021700	 0.247680	 0.033981	 0.967224	 0.232345	 -2.250460	 
0.021800	 0.247658	 0.034136	 0.966966	 0.233273	 -2.250476	 
0.021900	 0.247637	 0.034292	 0.966708	 0.234201	 -2.250491	 
0.022000	 0.247615	 0.034448	 0.966449	 0.235126	 -2.250507	 
0.022100	 0.247594	 0.034603	 0.966190	 0.236051	 -2.250523	 
0.022200	 0.247572	 0.034759	 0.965930	 0.236975	 -2.250538	 
0.022300	 0.247550	 0.034914	 0.965669	 0.237897	 -2.250554	 
0.022400	 0.247528	 0.035070	 0.965407	 0.238818	 -2.250570	 
0.022500	 0.247506	 0.035225	 0.965145	 0.239738	 -2.250586	 
0.022600	 0.247484	 0.035381	 0.964883	 0.240657	 -2.250602	 
0.022700	 0.247461	 0.035536	 0.964619	 0.241574	 -2.250618	 
0.022800	 0.247439	 0.035692	 0.964355	 0.242491	 -2.250634	 
0.022900	 0.247417	 0.035847	 0.964090	 0.243406	 -2.250650	 
0.023000	 0.247394	 0.036003	 0.963825	 0.244320	 -2.250666	 
0.023100	 0.247371	 0.036158	 0.963559	 0.245233	 -2.250682	 
0.023200	 0.247349	 0.036314	 0.963293	 0.246144	 -2.250699	 
0.023300	 0.247326	 0.036469	 0.963025	 0.247055	 -2.250715	 
0.023400	 0.247303	 0.036624	 0.962757	 0.247964	 -2.250731	 
0.023500	 0.247280	 0.036780	 0.962489	 0.248872	 -2.250748	 
0.023600	 0.247257	 0.036935	 0.962220	 0.249779	 -2.250764	 
0.023700	 0.247233	 0.037090	 0.961950	 0.250684	 -2.250781	 
0.023800	 0.247210	 0.037246	 0.961680	 0.251589	 -2.250797	 
0.023900	 0.247186	 0.037401	 0.961409	 0.252492	 -2.250814	 
0.024000	 0.247163	 0.037556	 0.961137	 0.253394	 -2.250830	 
0.024100	 0.247139	 0.037712	 0.960865	 0.254295	 -2.250847	 
0.024200	 0.247116	 0.037867	 0.960592	 0.255195	 -2.250864	 
0.024300	 0.247092	 0.038022	 0.960319	 0.256093	 -2.250881	 
0.024400	 0.247068	 0.038177	 0.960045	 0.256991	 -2.250898	 
0.024500	 0.247044	 0.038333	 0.959770	 0.257887	 -2.250914	 
0.024600	 0.247020	 0.038488	 0.959495	 0.258782	 -2.250931	 
0.024700	 0.246995	 0.038643	 0.959219	 0.259676	 -2.250948	 
0.024800	 0.246971	 0.038798	 0.958943	 0.260569	 -2.250965	 
0.024900	 0.246947	 0.038953	 0.958666	 0.261460	 -2.250982	 
0.025000	 0.246922	 0.039109	 0.958388	 0.262351	 -2.251000	 
0.025100	 0.246897	 0.039264	 0.958110	 0.263240	 -2.251017	 
0.025200	 0.246873	 0.039419	 0.957831	 0.264128	 -2.251034	 
0.025300	 0.246848	 0.039574	 0.957552	 0.265015	 -2.251051	 
0.025400	 0.246823	 0.039729	 0.957272	 0.265901	 -2.251069	 
0.025500	 0.246798	 0.039884	 0.956991	 0.266786	 -2.251086	 
0.025600	 0.246773	 0.040039	 0.956710	 0.267669	 -2.251103	 
0.025700	 0.246748	 0.040194	 0.956429	 0.268552	 -2.251121	 
0.025800	 0.246722	 0.040349	 0.956147	 0.269433	 -2.251138	 
0.025900	 0.246697	 0.040504	 0.955864	 0.270313	 -2.251156	 
0.026000	 0.246671	 0.040659	 0.955580	 0.271192	 -2.251173	 
0.026100	 0.246646	 0.040814	 0.955297	 0.272070	 -2.251191	 
0.026200	 0.246620	 0.040969	 0.955012	 0.272947	 -2.251209	 
0.026300	 0.246594	 0.041124	 0.954727	 0.273822	 -2.251227	 
0.026400	 0.246569	 0.041279	 0.954442	 0.274697	 -2.251244	 
0.026500	 0.246543	 0.041434	 0.954156	 0.275570	 -2.251262	 
0.026600	 0.246516	 0.041589	 0.953869	 0.276442	 -2.251280	 
0.026700	 0.246490	 0.041744	 0.953582	 0.277313	 -2.251298	 
0.026800	 0.246464	 0.041899	 0.953294	 0.278183	 -2.251316	 
0.026900	 0.246438	 0.042054	 0.953006	 0.279052	 -2.251334	 
0.027000	 0.246411	 0.042208	 0.952717	 0.279920	 -2.251352	 
0.027100	 0.246385	 0.042363	 0.952427	 0.280787	 -2.251370	 
0.027200	 0.246358	 0.042518	 0.952138	 0.281652	 -2.251388	 
0.027300	 0.246331	 0.042673	 0.951847	 0.282517	 -2.251406	 
0.027400	 0.246304	 0.042828	 0.951556	 0.283380	 -2.251425	 
0.027500	 0.246277	 0.042982	 0.951265	 0.284242	 -2.251443	 
0.027600	 0.246250	 0.043137	 0.950973	 0.285103	 -2.251461	 
0.027700	 0.246223	 0.043292	 0.950680	 0.285963	 -2.251480	 
0.027800	 0.246196	 0.043446	 0.950387	 0.286822	 -2.251498	 
0.027900	 0.246169	 0.043601	 0.950093	 0.287680	 -2.251516	 
0.028000	 0.246141	 0.043756	 0.949799	 0.288536	 -2.251535	 
0.028100	 0.246114	 0.043910	 0.949505	 0.289392	 -2.251553	 
0.028200	 0.246086	 0.044065	 0.949210	 0.290247	 -2.251572	 
0.028300	 0.246058	 0.044220	 0.948914	 0.291100	 -2.251591	 
0.028400	 0.246030	 0.044374	 0.948618	 0.291952	 -2.251609	 
0.028500	 0.246002	 0.044529	 0.948321	 0.292803	 -2.251628	 
0.028600	 0.245974	 0.044683	 0.948024	 0.293654	 -2.251647	 
0.028700	 0.245946	 0.044838	 0.947726	 0.294503	 -2.251665	 
0.028800	 0.245918	 0.044992	 0.947428	 0.295351	 -2.251684	 
0.028900	 0.245890	 0.045147	 0.947130	 0.296198	 -2.251703	 
0.029000	 0.245861	 0.045301	 0.946830	 0.297043	 -2.251722	 
0.029100	 0.245833	 0.045456	 0.946531	 0.297888	 -2.251741	 
0.029200	 0.245804	 0.045610	 0.946231	 0.298732	 -2.251760	 
0.029300	 0.245775	 0.045765	 0.945930	 0.299574	 -2.251779	 
0.029400	 0.245747	 0.045919	 0.945629	 0.300416	 -2.251798	 
0.029500	 0.245718	 0.046074	 0.945327	 0.301256	 -2.251817	 
0.029600	 0.245689	 0.046228	 0.945025	 0.302096	 -2.251836	 
0.029700	 0.245660	 0.046382	 0.944723	 0.302934	 -2.251856	 
0.029800	 0.245630	 0.046537	 0.944419	 0.303771	 -2.251875	 
0.029900	 0.245601	 0.046691	 0.944116	 0.304607	 -2.251894	 
0.030000	 0.245572	 0.046845	 0.943812	 0.305443	 -2.251914	 
0.030100	 0.245542	 0.047000	 0.943507	 0.306277	 -2.251933	 
0.030200	 0.245513	 0.047154	 0.943202	 0.307110	 -2.251952	 
0.030300	 0.245483	 0.047308	 0.942897	 0.307942	 -2.251972	 
0.030400	 0.245453	 0.047462	 0.942591	 0.308772	 -2.251991	 
0.030500	 0.245423	 0.047617	 0.942285	 0.309602	 -2.252011	 
0.030600	 0.245393	 0.047771	 0.941978	 0.310431	 -2.252030	 
0.030700	 0.245363	 0.047925	 0.941671	 0.311259	 -2.252050	 
0.030800	 0.245333	 0.048079	 0.941363	 0.312086	 -2.252070	 
0.030900	 0.245303	 0.048233	 0.941055	 0.312911	 -2.252089	 
0.031000	 0.245273	 0.048387	 0.940746	 0.313736	 -2.252109	 
0.031100	 0.245242	 0.048541	 0.940437	 0.314560	 -2.252129	 
0.031200	 0.245212	 0.048696	 0.940127	 0.315382	 -2.252149	 
0.031300	 0.245181	 0.048850	 0.939817	 0.316204	 -2.252168	 
0.031400	 0.245150	 0.049004	 0.939507	 0.317024	 -2.252188	 
0.031500	 0.245119	 0.049158	 0.939196	 0.317844	 -2.252208	 
