
theta(h[:])	 h[0]	 h[1]	 <m[0]>	 <m[1]>	 <E>	 dim_{Lat}=2	 L=128,128	 J=1.000000,1.000000	 {/Symbol s}_J=0.000000,0.000000	 <J_{ij}>=0.000000,0.000000	 dim_(Spin}=2	 h=-,0.000000	 {/Symbol s}_h=0.500000,0.000000	 <h_i>=-0.001290,0.000000	 order=1.000000,0.000000	 order_h=0	 order_r=1	 MCS/{/Symbol d}h=1/0.000100	 

Updating all (first)black/(then)white checkerboard sites simultaneously.. 
0.000000	 0.250000	 0.000000	 1.000000	 0.000000	 -2.248710	 
0.000100	 0.250000	 0.000157	 0.999985	 0.001832	 -2.248710	 
0.000200	 0.250000	 0.000314	 0.999965	 0.003398	 -2.248710	 
0.000300	 0.250000	 0.000471	 0.999943	 0.004885	 -2.248711	 
0.000400	 0.249999	 0.000628	 0.999920	 0.006333	 -2.248711	 
0.000500	 0.249999	 0.000785	 0.999894	 0.007757	 -2.248712	 
0.000600	 0.249998	 0.000942	 0.999867	 0.009163	 -2.248713	 
0.000700	 0.249998	 0.001100	 0.999837	 0.010556	 -2.248714	 
0.000800	 0.249997	 0.001257	 0.999804	 0.011939	 -2.248715	 
0.000900	 0.249996	 0.001414	 0.999770	 0.013312	 -2.248716	 
0.001000	 0.249995	 0.001571	 0.999733	 0.014678	 -2.248717	 
0.001100	 0.249994	 0.001728	 0.999693	 0.016036	 -2.248718	 
0.001200	 0.249993	 0.001885	 0.999652	 0.017387	 -2.248720	 
0.001300	 0.249992	 0.002042	 0.999608	 0.018732	 -2.248721	 
0.001400	 0.249990	 0.002199	 0.999562	 0.020071	 -2.248723	 
0.001500	 0.249989	 0.002356	 0.999513	 0.021404	 -2.248725	 
0.001600	 0.249987	 0.002513	 0.999463	 0.022732	 -2.248727	 
0.001700	 0.249986	 0.002670	 0.999410	 0.024055	 -2.248729	 
0.001800	 0.249984	 0.002827	 0.999356	 0.025372	 -2.248731	 
0.001900	 0.249982	 0.002984	 0.999299	 0.026685	 -2.248733	 
0.002000	 0.249980	 0.003142	 0.999240	 0.027993	 -2.248736	 
0.002100	 0.249978	 0.003299	 0.999179	 0.029296	 -2.248738	 
0.002200	 0.249976	 0.003456	 0.999116	 0.030595	 -2.248741	 
0.002300	 0.249974	 0.003613	 0.999051	 0.031889	 -2.248744	 
0.002400	 0.249972	 0.003770	 0.998984	 0.033179	 -2.248746	 
0.002500	 0.249969	 0.003927	 0.998916	 0.034465	 -2.248749	 
0.002600	 0.249967	 0.004084	 0.998845	 0.035747	 -2.248752	 
0.002700	 0.249964	 0.004241	 0.998773	 0.037025	 -2.248755	 
0.002800	 0.249961	 0.004398	 0.998699	 0.038299	 -2.248759	 
0.002900	 0.249958	 0.004555	 0.998623	 0.039569	 -2.248762	 
0.003000	 0.249956	 0.004712	 0.998545	 0.040835	 -2.248765	 
0.003100	 0.249953	 0.004869	 0.998465	 0.042098	 -2.248769	 
0.003200	 0.249949	 0.005026	 0.998384	 0.043357	 -2.248772	 
0.003300	 0.249946	 0.005183	 0.998301	 0.044612	 -2.248776	 
0.003400	 0.249943	 0.005340	 0.998217	 0.045864	 -2.248780	 
0.003500	 0.249940	 0.005497	 0.998130	 0.047113	 -2.248784	 
0.003600	 0.249936	 0.005654	 0.998042	 0.048358	 -2.248788	 
0.003700	 0.249932	 0.005811	 0.997953	 0.049600	 -2.248792	 
0.003800	 0.249929	 0.005968	 0.997862	 0.050839	 -2.248796	 
0.003900	 0.249925	 0.006125	 0.997769	 0.052074	 -2.248800	 
0.004000	 0.249921	 0.006283	 0.997674	 0.053307	 -2.248805	 
0.004100	 0.249917	 0.006440	 0.997578	 0.054536	 -2.248809	 
0.004200	 0.249913	 0.006597	 0.997481	 0.055762	 -2.248814	 
0.004300	 0.249909	 0.006754	 0.997382	 0.056986	 -2.248818	 
0.004400	 0.249904	 0.006911	 0.997281	 0.058206	 -2.248823	 
0.004500	 0.249900	 0.007068	 0.997179	 0.059423	 -2.248828	 
0.004600	 0.249896	 0.007225	 0.997076	 0.060638	 -2.248833	 
0.004700	 0.249891	 0.007382	 0.996971	 0.061849	 -2.248838	 
0.004800	 0.249886	 0.007539	 0.996864	 0.063058	 -2.248843	 
0.004900	 0.249882	 0.007696	 0.996756	 0.064264	 -2.248848	 
0.005000	 0.249877	 0.007853	 0.996647	 0.065468	 -2.248854	 
0.005100	 0.249872	 0.008010	 0.996536	 0.066668	 -2.248859	 
0.005200	 0.249867	 0.008167	 0.996423	 0.067866	 -2.248865	 
0.005300	 0.249861	 0.008324	 0.996309	 0.069062	 -2.248870	 
0.005400	 0.249856	 0.008481	 0.996194	 0.070254	 -2.248876	 
0.005500	 0.249851	 0.008638	 0.996078	 0.071445	 -2.248882	 
0.005600	 0.249845	 0.008795	 0.995960	 0.072632	 -2.248887	 
0.005700	 0.249840	 0.008952	 0.995840	 0.073817	 -2.248893	 
0.005800	 0.249834	 0.009109	 0.995720	 0.075000	 -2.248899	 
0.005900	 0.249828	 0.009266	 0.995598	 0.076180	 -2.248906	 
0.006000	 0.249822	 0.009423	 0.995474	 0.077357	 -2.248912	 
0.006100	 0.249816	 0.009580	 0.995350	 0.078533	 -2.248918	 
0.006200	 0.249810	 0.009736	 0.995224	 0.079705	 -2.248924	 
0.006300	 0.249804	 0.009893	 0.995096	 0.080876	 -2.248931	 
0.006400	 0.249798	 0.010050	 0.994967	 0.082044	 -2.248937	 
0.006500	 0.249792	 0.010207	 0.994837	 0.083210	 -2.248944	 
0.006600	 0.249785	 0.010364	 0.994706	 0.084373	 -2.248951	 
0.006700	 0.249779	 0.010521	 0.994574	 0.085534	 -2.248958	 
0.006800	 0.249772	 0.010678	 0.994440	 0.086693	 -2.248965	 
0.006900	 0.249765	 0.010835	 0.994305	 0.087849	 -2.248972	 
0.007000	 0.249758	 0.010992	 0.994168	 0.089004	 -2.248979	 
0.007100	 0.249751	 0.011149	 0.994031	 0.090156	 -2.248986	 
0.007200	 0.249744	 0.011306	 0.993892	 0.091305	 -2.248993	 
0.007300	 0.249737	 0.011463	 0.993752	 0.092453	 -2.249000	 
0.007400	 0.249730	 0.011620	 0.993610	 0.093598	 -2.249008	 
0.007500	 0.249722	 0.011777	 0.993468	 0.094742	 -2.249015	 
0.007600	 0.249715	 0.011934	 0.993324	 0.095883	 -2.249023	 
0.007700	 0.249707	 0.012090	 0.993179	 0.097022	 -2.249030	 
0.007800	 0.249700	 0.012247	 0.993033	 0.098159	 -2.249038	 
0.007900	 0.249692	 0.012404	 0.992886	 0.099293	 -2.249046	 
0.008000	 0.249684	 0.012561	 0.992737	 0.100426	 -2.249054	 
0.008100	 0.249676	 0.012718	 0.992588	 0.101557	 -2.249062	 
0.008200	 0.249668	 0.012875	 0.992437	 0.102685	 -2.249070	 
0.008300	 0.249660	 0.013032	 0.992285	 0.103812	 -2.249078	 
0.008400	 0.249652	 0.013189	 0.992132	 0.104936	 -2.249086	 
0.008500	 0.249644	 0.013345	 0.991977	 0.106058	 -2.249094	 
0.008600	 0.249635	 0.013502	 0.991822	 0.107179	 -2.249103	 
0.008700	 0.249627	 0.013659	 0.991665	 0.108297	 -2.249111	 
0.008800	 0.249618	 0.013816	 0.991508	 0.109413	 -2.249120	 
0.008900	 0.249609	 0.013973	 0.991349	 0.110528	 -2.249128	 
0.009000	 0.249600	 0.014130	 0.991189	 0.111640	 -2.249137	 
0.009100	 0.249591	 0.014286	 0.991028	 0.112751	 -2.249146	 
0.009200	 0.249582	 0.014443	 0.990866	 0.113859	 -2.249154	 
0.009300	 0.249573	 0.014600	 0.990702	 0.114966	 -2.249163	 
0.009400	 0.249564	 0.014757	 0.990538	 0.116070	 -2.249172	 
0.009500	 0.249555	 0.014914	 0.990373	 0.117173	 -2.249181	 
0.009600	 0.249545	 0.015071	 0.990206	 0.118274	 -2.249191	 
0.009700	 0.249536	 0.015227	 0.990038	 0.119373	 -2.249200	 
0.009800	 0.249526	 0.015384	 0.989870	 0.120470	 -2.249209	 
0.009900	 0.249516	 0.015541	 0.989700	 0.121565	 -2.249218	 
0.010000	 0.249507	 0.015698	 0.989529	 0.122658	 -2.249228	 
0.010100	 0.249497	 0.015854	 0.989358	 0.123750	 -2.249237	 
0.010200	 0.249487	 0.016011	 0.989185	 0.124839	 -2.249247	 
0.010300	 0.249477	 0.016168	 0.989011	 0.125927	 -2.249257	 
0.010400	 0.249466	 0.016325	 0.988836	 0.127013	 -2.249266	 
0.010500	 0.249456	 0.016481	 0.988660	 0.128097	 -2.249276	 
0.010600	 0.249446	 0.016638	 0.988483	 0.129179	 -2.249286	 
0.010700	 0.249435	 0.016795	 0.988305	 0.130260	 -2.249296	 
0.010800	 0.249425	 0.016952	 0.988126	 0.131338	 -2.249306	 
0.010900	 0.249414	 0.017108	 0.987946	 0.132415	 -2.249316	 
0.011000	 0.249403	 0.017265	 0.987765	 0.133490	 -2.249326	 
0.011100	 0.249392	 0.017422	 0.987584	 0.134563	 -2.249336	 
0.011200	 0.249381	 0.017578	 0.987401	 0.135635	 -2.249347	 
0.011300	 0.249370	 0.017735	 0.987217	 0.136705	 -2.249357	 
0.011400	 0.249359	 0.017892	 0.987032	 0.137773	 -2.249368	 
0.011500	 0.249348	 0.018048	 0.986846	 0.138839	 -2.249378	 
0.011600	 0.249336	 0.018205	 0.986659	 0.139903	 -2.249389	 
0.011700	 0.249325	 0.018362	 0.986471	 0.140966	 -2.249399	 
0.011800	 0.249313	 0.018518	 0.986283	 0.142027	 -2.249410	 
0.011900	 0.249302	 0.018675	 0.986093	 0.143086	 -2.249421	 
0.012000	 0.249290	 0.018832	 0.985902	 0.144144	 -2.249432	 
0.012100	 0.249278	 0.018988	 0.985711	 0.145200	 -2.249443	 
0.012200	 0.249266	 0.019145	 0.985518	 0.146254	 -2.249454	 
0.012300	 0.249254	 0.019302	 0.985325	 0.147307	 -2.249465	 
0.012400	 0.249242	 0.019458	 0.985130	 0.148358	 -2.249476	 
0.012500	 0.249229	 0.019615	 0.984935	 0.149407	 -2.249487	 
0.012600	 0.249217	 0.019771	 0.984739	 0.150454	 -2.249498	 
0.012700	 0.249204	 0.019928	 0.984542	 0.151500	 -2.249510	 
0.012800	 0.249192	 0.020085	 0.984344	 0.152544	 -2.249521	 
0.012900	 0.249179	 0.020241	 0.984145	 0.153587	 -2.249533	 
0.013000	 0.249166	 0.020398	 0.983945	 0.154628	 -2.249544	 
0.013100	 0.249154	 0.020554	 0.983744	 0.155667	 -2.249556	 
0.013200	 0.249141	 0.020711	 0.983543	 0.156704	 -2.249568	 
0.013300	 0.249128	 0.020867	 0.983340	 0.157740	 -2.249579	 
0.013400	 0.249114	 0.021024	 0.983137	 0.158775	 -2.249591	 
0.013500	 0.249101	 0.021180	 0.982933	 0.159807	 -2.249603	 
0.013600	 0.249088	 0.021337	 0.982728	 0.160838	 -2.249615	 
0.013700	 0.249074	 0.021493	 0.982522	 0.161868	 -2.249627	 
0.013800	 0.249061	 0.021650	 0.982315	 0.162896	 -2.249639	 
0.013900	 0.249047	 0.021806	 0.982107	 0.163922	 -2.249651	 
0.014000	 0.249033	 0.021963	 0.981899	 0.164947	 -2.249664	 
0.014100	 0.249020	 0.022119	 0.981689	 0.165970	 -2.249676	 
0.014200	 0.249006	 0.022276	 0.981479	 0.166992	 -2.249688	 
0.014300	 0.248992	 0.022432	 0.981268	 0.168012	 -2.249701	 
0.014400	 0.248977	 0.022589	 0.981056	 0.169030	 -2.249713	 
0.014500	 0.248963	 0.022745	 0.980843	 0.170047	 -2.249726	 
0.014600	 0.248949	 0.022901	 0.980630	 0.171062	 -2.249738	 
0.014700	 0.248934	 0.023058	 0.980415	 0.172076	 -2.249751	 
0.014800	 0.248920	 0.023214	 0.980200	 0.173088	 -2.249764	 
0.014900	 0.248905	 0.023371	 0.979984	 0.174099	 -2.249777	 
0.015000	 0.248890	 0.023527	 0.979767	 0.175108	 -2.249789	 
0.015100	 0.248876	 0.023683	 0.979549	 0.176116	 -2.249802	 
0.015200	 0.248861	 0.023840	 0.979331	 0.177122	 -2.249815	 
0.015300	 0.248846	 0.023996	 0.979111	 0.178126	 -2.249828	 
0.015400	 0.248831	 0.024153	 0.978891	 0.179129	 -2.249842	 
0.015500	 0.248815	 0.024309	 0.978671	 0.180131	 -2.249855	 
0.015600	 0.248800	 0.024465	 0.978449	 0.181131	 -2.249868	 
0.015700	 0.248785	 0.024622	 0.978226	 0.182129	 -2.249881	 
0.015800	 0.248769	 0.024778	 0.978003	 0.183126	 -2.249895	 
0.015900	 0.248753	 0.024934	 0.977779	 0.184122	 -2.249908	 
0.016000	 0.248738	 0.025090	 0.977554	 0.185116	 -2.249922	 
0.016100	 0.248722	 0.025247	 0.977329	 0.186108	 -2.249935	 
0.016200	 0.248706	 0.025403	 0.977102	 0.187100	 -2.249949	 
0.016300	 0.248690	 0.025559	 0.976875	 0.188089	 -2.249962	 
0.016400	 0.248674	 0.025715	 0.976647	 0.189077	 -2.249976	 
0.016500	 0.248658	 0.025872	 0.976419	 0.190064	 -2.249990	 
0.016600	 0.248641	 0.026028	 0.976189	 0.191049	 -2.250004	 
0.016700	 0.248625	 0.026184	 0.975959	 0.192033	 -2.250018	 
0.016800	 0.248608	 0.026340	 0.975728	 0.193015	 -2.250032	 
0.016900	 0.248592	 0.026497	 0.975497	 0.193996	 -2.250046	 
0.017000	 0.248575	 0.026653	 0.975264	 0.194975	 -2.250060	 
0.017100	 0.248558	 0.026809	 0.975031	 0.195953	 -2.250074	 
0.017200	 0.248542	 0.026965	 0.974798	 0.196930	 -2.250088	 
0.017300	 0.248525	 0.027121	 0.974563	 0.197905	 -2.250102	 
0.017400	 0.248507	 0.027277	 0.974328	 0.198879	 -2.250117	 
0.017500	 0.248490	 0.027434	 0.974092	 0.199851	 -2.250131	 
0.017600	 0.248473	 0.027590	 0.973855	 0.200822	 -2.250146	 
0.017700	 0.248456	 0.027746	 0.973617	 0.201791	 -2.250160	 
0.017800	 0.248438	 0.027902	 0.973379	 0.202759	 -2.250175	 
0.017900	 0.248421	 0.028058	 0.973140	 0.203726	 -2.250189	 
0.018000	 0.248403	 0.028214	 0.972901	 0.204691	 -2.250204	 
0.018100	 0.248385	 0.028370	 0.972661	 0.205655	 -2.250219	 
0.018200	 0.248367	 0.028526	 0.972420	 0.206617	 -2.250233	 
0.018300	 0.248349	 0.028682	 0.972178	 0.207578	 -2.250248	 
0.018400	 0.248331	 0.028838	 0.971936	 0.208538	 -2.250263	 
0.018500	 0.248313	 0.028994	 0.971692	 0.209496	 -2.250278	 
0.018600	 0.248295	 0.029150	 0.971449	 0.210453	 -2.250293	 
0.018700	 0.248276	 0.029306	 0.971204	 0.211408	 -2.250308	 
0.018800	 0.248258	 0.029462	 0.970959	 0.212363	 -2.250323	 
0.018900	 0.248239	 0.029618	 0.970713	 0.213315	 -2.250339	 
0.019000	 0.248221	 0.029774	 0.970467	 0.214267	 -2.250354	 
0.019100	 0.248202	 0.029930	 0.970220	 0.215217	 -2.250369	 
0.019200	 0.248183	 0.030086	 0.969972	 0.216165	 -2.250384	 
0.019300	 0.248164	 0.030242	 0.969723	 0.217113	 -2.250400	 
0.019400	 0.248145	 0.030398	 0.969474	 0.218059	 -2.250415	 
0.019500	 0.248126	 0.030554	 0.969224	 0.219003	 -2.250431	 
0.019600	 0.248107	 0.030710	 0.968974	 0.219947	 -2.250446	 
0.019700	 0.248087	 0.030866	 0.968723	 0.220889	 -2.250462	 
0.019800	 0.248068	 0.031022	 0.968471	 0.221829	 -2.250478	 
0.019900	 0.248048	 0.031177	 0.968219	 0.222769	 -2.250493	 
0.020000	 0.248029	 0.031333	 0.967966	 0.223707	 -2.250509	 
0.020100	 0.248009	 0.031489	 0.967712	 0.224643	 -2.250525	 
0.020200	 0.247989	 0.031645	 0.967457	 0.225578	 -2.250541	 
0.020300	 0.247969	 0.031801	 0.967202	 0.226512	 -2.250557	 
0.020400	 0.247949	 0.031957	 0.966947	 0.227445	 -2.250573	 
0.020500	 0.247929	 0.032112	 0.966691	 0.228377	 -2.250589	 
0.020600	 0.247909	 0.032268	 0.966434	 0.229307	 -2.250605	 
0.020700	 0.247888	 0.032424	 0.966176	 0.230235	 -2.250621	 
0.020800	 0.247868	 0.032580	 0.965918	 0.231163	 -2.250637	 
0.020900	 0.247848	 0.032735	 0.965659	 0.232089	 -2.250653	 
0.021000	 0.247827	 0.032891	 0.965400	 0.233014	 -2.250670	 
0.021100	 0.247806	 0.033047	 0.965140	 0.233937	 -2.250686	 
0.021200	 0.247785	 0.033202	 0.964879	 0.234860	 -2.250703	 
0.021300	 0.247764	 0.033358	 0.964618	 0.235781	 -2.250719	 
0.021400	 0.247743	 0.033514	 0.964356	 0.236700	 -2.250736	 
0.021500	 0.247722	 0.033669	 0.964094	 0.237619	 -2.250752	 
0.021600	 0.247701	 0.033825	 0.963830	 0.238536	 -2.250769	 
0.021700	 0.247680	 0.033981	 0.963567	 0.239452	 -2.250785	 
0.021800	 0.247658	 0.034136	 0.963303	 0.240367	 -2.250802	 
0.021900	 0.247637	 0.034292	 0.963038	 0.241280	 -2.250819	 
0.022000	 0.247615	 0.034448	 0.962772	 0.242192	 -2.250836	 
0.022100	 0.247594	 0.034603	 0.962506	 0.243103	 -2.250853	 
0.022200	 0.247572	 0.034759	 0.962240	 0.244013	 -2.250869	 
0.022300	 0.247550	 0.034914	 0.961972	 0.244921	 -2.250886	 
0.022400	 0.247528	 0.035070	 0.961705	 0.245828	 -2.250903	 
0.022500	 0.247506	 0.035225	 0.961436	 0.246734	 -2.250921	 
0.022600	 0.247484	 0.035381	 0.961167	 0.247639	 -2.250938	 
0.022700	 0.247461	 0.035536	 0.960898	 0.248542	 -2.250955	 
0.022800	 0.247439	 0.035692	 0.960628	 0.249444	 -2.250972	 
0.022900	 0.247417	 0.035847	 0.960357	 0.250345	 -2.250989	 
0.023000	 0.247394	 0.036003	 0.960086	 0.251245	 -2.251007	 
0.023100	 0.247371	 0.036158	 0.959814	 0.252143	 -2.251024	 
0.023200	 0.247349	 0.036314	 0.959541	 0.253040	 -2.251041	 
0.023300	 0.247326	 0.036469	 0.959268	 0.253936	 -2.251059	 
0.023400	 0.247303	 0.036624	 0.958995	 0.254831	 -2.251076	 
0.023500	 0.247280	 0.036780	 0.958721	 0.255725	 -2.251094	 
0.023600	 0.247257	 0.036935	 0.958446	 0.256617	 -2.251111	 
0.023700	 0.247233	 0.037090	 0.958171	 0.257508	 -2.251129	 
0.023800	 0.247210	 0.037246	 0.957895	 0.258398	 -2.251147	 
0.023900	 0.247186	 0.037401	 0.957619	 0.259287	 -2.251165	 
0.024000	 0.247163	 0.037556	 0.957342	 0.260175	 -2.251182	 
0.024100	 0.247139	 0.037712	 0.957065	 0.261061	 -2.251200	 
0.024200	 0.247116	 0.037867	 0.956787	 0.261946	 -2.251218	 
0.024300	 0.247092	 0.038022	 0.956509	 0.262830	 -2.251236	 
0.024400	 0.247068	 0.038177	 0.956230	 0.263713	 -2.251254	 
0.024500	 0.247044	 0.038333	 0.955950	 0.264595	 -2.251272	 
0.024600	 0.247020	 0.038488	 0.955670	 0.265475	 -2.251290	 
0.024700	 0.246995	 0.038643	 0.955390	 0.266354	 -2.251308	 
0.024800	 0.246971	 0.038798	 0.955108	 0.267232	 -2.251326	 
0.024900	 0.246947	 0.038953	 0.954827	 0.268109	 -2.251345	 
0.025000	 0.246922	 0.039109	 0.954545	 0.268985	 -2.251363	 
0.025100	 0.246897	 0.039264	 0.954262	 0.269859	 -2.251381	 
0.025200	 0.246873	 0.039419	 0.953979	 0.270733	 -2.251399	 
0.025300	 0.246848	 0.039574	 0.953695	 0.271605	 -2.251418	 
0.025400	 0.246823	 0.039729	 0.953411	 0.272476	 -2.251436	 
0.025500	 0.246798	 0.039884	 0.953126	 0.273346	 -2.251455	 
0.025600	 0.246773	 0.040039	 0.952841	 0.274215	 -2.251473	 
0.025700	 0.246748	 0.040194	 0.952555	 0.275082	 -2.251492	 
0.025800	 0.246722	 0.040349	 0.952269	 0.275948	 -2.251510	 
0.025900	 0.246697	 0.040504	 0.951982	 0.276814	 -2.251529	 
0.026000	 0.246671	 0.040659	 0.951695	 0.277678	 -2.251548	 
0.026100	 0.246646	 0.040814	 0.951407	 0.278541	 -2.251567	 
0.026200	 0.246620	 0.040969	 0.951119	 0.279403	 -2.251585	 
0.026300	 0.246594	 0.041124	 0.950830	 0.280263	 -2.251604	 
0.026400	 0.246569	 0.041279	 0.950541	 0.281123	 -2.251623	 
0.026500	 0.246543	 0.041434	 0.950251	 0.281981	 -2.251642	 
0.026600	 0.246516	 0.041589	 0.949961	 0.282839	 -2.251661	 
0.026700	 0.246490	 0.041744	 0.949670	 0.283695	 -2.251680	 
0.026800	 0.246464	 0.041899	 0.949379	 0.284550	 -2.251699	 
0.026900	 0.246438	 0.042054	 0.949087	 0.285404	 -2.251718	 
0.027000	 0.246411	 0.042208	 0.948795	 0.286257	 -2.251737	 
0.027100	 0.246385	 0.042363	 0.948502	 0.287108	 -2.251756	 
0.027200	 0.246358	 0.042518	 0.948209	 0.287959	 -2.251776	 
0.027300	 0.246331	 0.042673	 0.947915	 0.288808	 -2.251795	 
0.027400	 0.246304	 0.042828	 0.947621	 0.289657	 -2.251814	 
0.027500	 0.246277	 0.042982	 0.947326	 0.290504	 -2.251834	 
0.027600	 0.246250	 0.043137	 0.947031	 0.291350	 -2.251853	 
0.027700	 0.246223	 0.043292	 0.946736	 0.292195	 -2.251872	 
0.027800	 0.246196	 0.043446	 0.946440	 0.293039	 -2.251892	 
0.027900	 0.246169	 0.043601	 0.946143	 0.293882	 -2.251911	 
0.028000	 0.246141	 0.043756	 0.945846	 0.294724	 -2.251931	 
0.028100	 0.246114	 0.043910	 0.945549	 0.295564	 -2.251951	 
0.028200	 0.246086	 0.044065	 0.945251	 0.296404	 -2.251970	 
0.028300	 0.246058	 0.044220	 0.944953	 0.297242	 -2.251990	 
0.028400	 0.246030	 0.044374	 0.944654	 0.298080	 -2.252010	 
0.028500	 0.246002	 0.044529	 0.944355	 0.298916	 -2.252029	 
0.028600	 0.245974	 0.044683	 0.944055	 0.299751	 -2.252049	 
0.028700	 0.245946	 0.044838	 0.943755	 0.300585	 -2.252069	 
0.028800	 0.245918	 0.044992	 0.943454	 0.301418	 -2.252089	 
0.028900	 0.245890	 0.045147	 0.943153	 0.302250	 -2.252109	 
0.029000	 0.245861	 0.045301	 0.942852	 0.303081	 -2.252129	 
0.029100	 0.245833	 0.045456	 0.942550	 0.303911	 -2.252149	 
0.029200	 0.245804	 0.045610	 0.942247	 0.304740	 -2.252169	 
0.029300	 0.245775	 0.045765	 0.941945	 0.305568	 -2.252189	 
0.029400	 0.245747	 0.045919	 0.941641	 0.306394	 -2.252209	 
0.029500	 0.245718	 0.046074	 0.941338	 0.307220	 -2.252229	 
0.029600	 0.245689	 0.046228	 0.941033	 0.308044	 -2.252249	 
0.029700	 0.245660	 0.046382	 0.940729	 0.308868	 -2.252270	 
0.029800	 0.245630	 0.046537	 0.940424	 0.309690	 -2.252290	 
0.029900	 0.245601	 0.046691	 0.940118	 0.310512	 -2.252310	 
0.030000	 0.245572	 0.046845	 0.939812	 0.311332	 -2.252331	 
0.030100	 0.245542	 0.047000	 0.939506	 0.312151	 -2.252351	 
0.030200	 0.245513	 0.047154	 0.939199	 0.312969	 -2.252371	 
0.030300	 0.245483	 0.047308	 0.938892	 0.313787	 -2.252392	 
0.030400	 0.245453	 0.047462	 0.938585	 0.314603	 -2.252412	 
0.030500	 0.245423	 0.047617	 0.938277	 0.315418	 -2.252433	 
0.030600	 0.245393	 0.047771	 0.937968	 0.316232	 -2.252453	 
0.030700	 0.245363	 0.047925	 0.937659	 0.317045	 -2.252474	 
0.030800	 0.245333	 0.048079	 0.937350	 0.317857	 -2.252495	 
0.030900	 0.245303	 0.048233	 0.937040	 0.318668	 -2.252515	 
0.031000	 0.245273	 0.048387	 0.936730	 0.319478	 -2.252536	 
0.031100	 0.245242	 0.048541	 0.936420	 0.320287	 -2.252557	 
0.031200	 0.245212	 0.048696	 0.936109	 0.321095	 -2.252578	 
0.031300	 0.245181	 0.048850	 0.935798	 0.321902	 -2.252599	 
0.031400	 0.245150	 0.049004	 0.935486	 0.322707	 -2.252620	 
0.031500	 0.245119	 0.049158	 0.935174	 0.323512	 -2.252640	 
