
theta(h[:])	 h[0]	 h[1]	 <m[0]>	 <m[1]>	 <E>	 dim_{Lat}=2	 L=128,128	 J=1.000000,1.000000	 {/Symbol s}_J=0.000000,0.000000	 <J_{ij}>=0.000000,0.000000	 dim_(Spin}=2	 h=-,0.000000	 {/Symbol s}_h=0.500000,0.000000	 <h_i>=-0.000797,0.000000	 order=1.000000,0.000000	 order_h=0	 order_r=1	 MCS/{/Symbol d}h=1/0.000100	 

Updating all (first)black/(then)white checkerboard sites simultaneously.. 
0.000000	 0.250000	 0.000000	 1.000000	 -0.000000	 -2.249203	 
0.000100	 0.250000	 0.000157	 0.999999	 0.001256	 -2.249203	 
0.000200	 0.250000	 0.000314	 0.999994	 0.002511	 -2.249203	 
0.000300	 0.250000	 0.000471	 0.999988	 0.003764	 -2.249203	 
0.000400	 0.249999	 0.000628	 0.999978	 0.005014	 -2.249203	 
0.000500	 0.249999	 0.000785	 0.999966	 0.006261	 -2.249204	 
0.000600	 0.249998	 0.000942	 0.999952	 0.007505	 -2.249204	 
0.000700	 0.249998	 0.001100	 0.999935	 0.008744	 -2.249205	 
0.000800	 0.249997	 0.001257	 0.999916	 0.009980	 -2.249206	 
0.000900	 0.249996	 0.001414	 0.999895	 0.011213	 -2.249207	 
0.001000	 0.249995	 0.001571	 0.999872	 0.012441	 -2.249208	 
0.001100	 0.249994	 0.001728	 0.999847	 0.013667	 -2.249209	 
0.001200	 0.249993	 0.001885	 0.999820	 0.014889	 -2.249210	 
0.001300	 0.249992	 0.002042	 0.999791	 0.016108	 -2.249211	 
0.001400	 0.249990	 0.002199	 0.999760	 0.017323	 -2.249212	 
0.001500	 0.249989	 0.002356	 0.999727	 0.018536	 -2.249214	 
0.001600	 0.249987	 0.002513	 0.999693	 0.019747	 -2.249215	 
0.001700	 0.249986	 0.002670	 0.999657	 0.020954	 -2.249217	 
0.001800	 0.249984	 0.002827	 0.999619	 0.022159	 -2.249218	 
0.001900	 0.249982	 0.002984	 0.999579	 0.023362	 -2.249220	 
0.002000	 0.249980	 0.003142	 0.999537	 0.024562	 -2.249222	 
0.002100	 0.249978	 0.003299	 0.999494	 0.025760	 -2.249224	 
0.002200	 0.249976	 0.003456	 0.999449	 0.026956	 -2.249226	 
0.002300	 0.249974	 0.003613	 0.999403	 0.028149	 -2.249228	 
0.002400	 0.249972	 0.003770	 0.999354	 0.029340	 -2.249230	 
0.002500	 0.249969	 0.003927	 0.999304	 0.030530	 -2.249232	 
0.002600	 0.249967	 0.004084	 0.999253	 0.031717	 -2.249235	 
0.002700	 0.249964	 0.004241	 0.999200	 0.032902	 -2.249237	 
0.002800	 0.249961	 0.004398	 0.999145	 0.034086	 -2.249240	 
0.002900	 0.249958	 0.004555	 0.999088	 0.035267	 -2.249242	 
0.003000	 0.249956	 0.004712	 0.999030	 0.036447	 -2.249245	 
0.003100	 0.249953	 0.004869	 0.998971	 0.037624	 -2.249248	 
0.003200	 0.249949	 0.005026	 0.998909	 0.038800	 -2.249251	 
0.003300	 0.249946	 0.005183	 0.998847	 0.039974	 -2.249254	 
0.003400	 0.249943	 0.005340	 0.998782	 0.041147	 -2.249257	 
0.003500	 0.249940	 0.005497	 0.998717	 0.042317	 -2.249260	 
0.003600	 0.249936	 0.005654	 0.998649	 0.043486	 -2.249263	 
0.003700	 0.249932	 0.005811	 0.998580	 0.044653	 -2.249267	 
0.003800	 0.249929	 0.005968	 0.998510	 0.045819	 -2.249270	 
0.003900	 0.249925	 0.006125	 0.998438	 0.046982	 -2.249274	 
0.004000	 0.249921	 0.006283	 0.998364	 0.048144	 -2.249277	 
0.004100	 0.249917	 0.006440	 0.998289	 0.049305	 -2.249281	 
0.004200	 0.249913	 0.006597	 0.998213	 0.050463	 -2.249284	 
0.004300	 0.249909	 0.006754	 0.998135	 0.051620	 -2.249288	 
0.004400	 0.249904	 0.006911	 0.998056	 0.052776	 -2.249292	 
0.004500	 0.249900	 0.007068	 0.997975	 0.053930	 -2.249296	 
0.004600	 0.249896	 0.007225	 0.997892	 0.055082	 -2.249300	 
0.004700	 0.249891	 0.007382	 0.997809	 0.056232	 -2.249304	 
0.004800	 0.249886	 0.007539	 0.997723	 0.057381	 -2.249309	 
0.004900	 0.249882	 0.007696	 0.997637	 0.058529	 -2.249313	 
0.005000	 0.249877	 0.007853	 0.997549	 0.059675	 -2.249317	 
0.005100	 0.249872	 0.008010	 0.997459	 0.060819	 -2.249322	 
0.005200	 0.249867	 0.008167	 0.997368	 0.061962	 -2.249326	 
0.005300	 0.249861	 0.008324	 0.997276	 0.063103	 -2.249331	 
0.005400	 0.249856	 0.008481	 0.997182	 0.064243	 -2.249336	 
0.005500	 0.249851	 0.008638	 0.997087	 0.065381	 -2.249341	 
0.005600	 0.249845	 0.008795	 0.996991	 0.066518	 -2.249346	 
0.005700	 0.249840	 0.008952	 0.996893	 0.067653	 -2.249351	 
0.005800	 0.249834	 0.009109	 0.996794	 0.068786	 -2.249356	 
0.005900	 0.249828	 0.009266	 0.996693	 0.069918	 -2.249361	 
0.006000	 0.249822	 0.009423	 0.996591	 0.071049	 -2.249366	 
0.006100	 0.249816	 0.009580	 0.996488	 0.072178	 -2.249371	 
0.006200	 0.249810	 0.009736	 0.996383	 0.073305	 -2.249377	 
0.006300	 0.249804	 0.009893	 0.996277	 0.074431	 -2.249382	 
0.006400	 0.249798	 0.010050	 0.996170	 0.075556	 -2.249388	 
0.006500	 0.249792	 0.010207	 0.996062	 0.076679	 -2.249393	 
0.006600	 0.249785	 0.010364	 0.995952	 0.077801	 -2.249399	 
0.006700	 0.249779	 0.010521	 0.995841	 0.078921	 -2.249405	 
0.006800	 0.249772	 0.010678	 0.995728	 0.080040	 -2.249410	 
0.006900	 0.249765	 0.010835	 0.995614	 0.081157	 -2.249416	 
0.007000	 0.249758	 0.010992	 0.995499	 0.082272	 -2.249422	 
0.007100	 0.249751	 0.011149	 0.995383	 0.083387	 -2.249428	 
0.007200	 0.249744	 0.011306	 0.995265	 0.084500	 -2.249435	 
0.007300	 0.249737	 0.011463	 0.995146	 0.085611	 -2.249441	 
0.007400	 0.249730	 0.011620	 0.995026	 0.086721	 -2.249447	 
0.007500	 0.249722	 0.011777	 0.994905	 0.087829	 -2.249454	 
0.007600	 0.249715	 0.011934	 0.994782	 0.088936	 -2.249460	 
0.007700	 0.249707	 0.012090	 0.994658	 0.090042	 -2.249467	 
0.007800	 0.249700	 0.012247	 0.994533	 0.091146	 -2.249473	 
0.007900	 0.249692	 0.012404	 0.994407	 0.092248	 -2.249480	 
0.008000	 0.249684	 0.012561	 0.994279	 0.093350	 -2.249487	 
0.008100	 0.249676	 0.012718	 0.994150	 0.094449	 -2.249493	 
0.008200	 0.249668	 0.012875	 0.994020	 0.095548	 -2.249500	 
0.008300	 0.249660	 0.013032	 0.993889	 0.096645	 -2.249507	 
0.008400	 0.249652	 0.013189	 0.993756	 0.097740	 -2.249514	 
0.008500	 0.249644	 0.013345	 0.993623	 0.098834	 -2.249522	 
0.008600	 0.249635	 0.013502	 0.993488	 0.099927	 -2.249529	 
0.008700	 0.249627	 0.013659	 0.993352	 0.101018	 -2.249536	 
0.008800	 0.249618	 0.013816	 0.993215	 0.102108	 -2.249543	 
0.008900	 0.249609	 0.013973	 0.993076	 0.103196	 -2.249551	 
0.009000	 0.249600	 0.014130	 0.992937	 0.104283	 -2.249558	 
0.009100	 0.249591	 0.014286	 0.992796	 0.105369	 -2.249566	 
0.009200	 0.249582	 0.014443	 0.992654	 0.106453	 -2.249574	 
0.009300	 0.249573	 0.014600	 0.992511	 0.107536	 -2.249581	 
0.009400	 0.249564	 0.014757	 0.992367	 0.108617	 -2.249589	 
0.009500	 0.249555	 0.014914	 0.992221	 0.109697	 -2.249597	 
0.009600	 0.249545	 0.015071	 0.992075	 0.110776	 -2.249605	 
0.009700	 0.249536	 0.015227	 0.991927	 0.111853	 -2.249613	 
0.009800	 0.249526	 0.015384	 0.991779	 0.112929	 -2.249621	 
0.009900	 0.249516	 0.015541	 0.991629	 0.114003	 -2.249629	 
0.010000	 0.249507	 0.015698	 0.991478	 0.115076	 -2.249637	 
0.010100	 0.249497	 0.015854	 0.991326	 0.116148	 -2.249646	 
0.010200	 0.249487	 0.016011	 0.991172	 0.117218	 -2.249654	 
0.010300	 0.249477	 0.016168	 0.991018	 0.118287	 -2.249662	 
0.010400	 0.249466	 0.016325	 0.990863	 0.119354	 -2.249671	 
0.010500	 0.249456	 0.016481	 0.990706	 0.120420	 -2.249679	 
0.010600	 0.249446	 0.016638	 0.990549	 0.121485	 -2.249688	 
0.010700	 0.249435	 0.016795	 0.990390	 0.122548	 -2.249697	 
0.010800	 0.249425	 0.016952	 0.990230	 0.123610	 -2.249706	 
0.010900	 0.249414	 0.017108	 0.990069	 0.124670	 -2.249715	 
0.011000	 0.249403	 0.017265	 0.989908	 0.125730	 -2.249723	 
0.011100	 0.249392	 0.017422	 0.989745	 0.126787	 -2.249732	 
0.011200	 0.249381	 0.017578	 0.989581	 0.127844	 -2.249742	 
0.011300	 0.249370	 0.017735	 0.989416	 0.128899	 -2.249751	 
0.011400	 0.249359	 0.017892	 0.989250	 0.129952	 -2.249760	 
0.011500	 0.249348	 0.018048	 0.989082	 0.131005	 -2.249769	 
0.011600	 0.249336	 0.018205	 0.988914	 0.132056	 -2.249778	 
0.011700	 0.249325	 0.018362	 0.988745	 0.133105	 -2.249788	 
0.011800	 0.249313	 0.018518	 0.988575	 0.134153	 -2.249797	 
0.011900	 0.249302	 0.018675	 0.988404	 0.135200	 -2.249807	 
0.012000	 0.249290	 0.018832	 0.988231	 0.136246	 -2.249817	 
0.012100	 0.249278	 0.018988	 0.988058	 0.137290	 -2.249826	 
0.012200	 0.249266	 0.019145	 0.987884	 0.138333	 -2.249836	 
0.012300	 0.249254	 0.019302	 0.987708	 0.139374	 -2.249846	 
0.012400	 0.249242	 0.019458	 0.987532	 0.140414	 -2.249856	 
0.012500	 0.249229	 0.019615	 0.987355	 0.141453	 -2.249866	 
0.012600	 0.249217	 0.019771	 0.987177	 0.142490	 -2.249876	 
0.012700	 0.249204	 0.019928	 0.986997	 0.143527	 -2.249886	 
0.012800	 0.249192	 0.020085	 0.986817	 0.144561	 -2.249896	 
0.012900	 0.249179	 0.020241	 0.986636	 0.145595	 -2.249906	 
0.013000	 0.249166	 0.020398	 0.986454	 0.146627	 -2.249916	 
0.013100	 0.249154	 0.020554	 0.986270	 0.147657	 -2.249927	 
0.013200	 0.249141	 0.020711	 0.986086	 0.148687	 -2.249937	 
0.013300	 0.249128	 0.020867	 0.985901	 0.149715	 -2.249948	 
0.013400	 0.249114	 0.021024	 0.985715	 0.150742	 -2.249958	 
0.013500	 0.249101	 0.021180	 0.985528	 0.151767	 -2.249969	 
0.013600	 0.249088	 0.021337	 0.985340	 0.152791	 -2.249979	 
0.013700	 0.249074	 0.021493	 0.985151	 0.153814	 -2.249990	 
0.013800	 0.249061	 0.021650	 0.984961	 0.154835	 -2.250001	 
0.013900	 0.249047	 0.021806	 0.984771	 0.155855	 -2.250012	 
0.014000	 0.249033	 0.021963	 0.984579	 0.156874	 -2.250023	 
0.014100	 0.249020	 0.022119	 0.984386	 0.157891	 -2.250034	 
0.014200	 0.249006	 0.022276	 0.984193	 0.158908	 -2.250045	 
0.014300	 0.248992	 0.022432	 0.983998	 0.159922	 -2.250056	 
0.014400	 0.248977	 0.022589	 0.983803	 0.160936	 -2.250067	 
0.014500	 0.248963	 0.022745	 0.983606	 0.161948	 -2.250078	 
0.014600	 0.248949	 0.022901	 0.983409	 0.162959	 -2.250090	 
0.014700	 0.248934	 0.023058	 0.983211	 0.163969	 -2.250101	 
0.014800	 0.248920	 0.023214	 0.983012	 0.164977	 -2.250112	 
0.014900	 0.248905	 0.023371	 0.982812	 0.165984	 -2.250124	 
0.015000	 0.248890	 0.023527	 0.982611	 0.166989	 -2.250135	 
0.015100	 0.248876	 0.023683	 0.982410	 0.167994	 -2.250147	 
0.015200	 0.248861	 0.023840	 0.982207	 0.168997	 -2.250159	 
0.015300	 0.248846	 0.023996	 0.982004	 0.169999	 -2.250171	 
0.015400	 0.248831	 0.024153	 0.981799	 0.170999	 -2.250182	 
0.015500	 0.248815	 0.024309	 0.981594	 0.171998	 -2.250194	 
0.015600	 0.248800	 0.024465	 0.981388	 0.172996	 -2.250206	 
0.015700	 0.248785	 0.024622	 0.981181	 0.173993	 -2.250218	 
0.015800	 0.248769	 0.024778	 0.980973	 0.174988	 -2.250230	 
0.015900	 0.248753	 0.024934	 0.980765	 0.175982	 -2.250242	 
0.016000	 0.248738	 0.025090	 0.980555	 0.176975	 -2.250254	 
0.016100	 0.248722	 0.025247	 0.980345	 0.177966	 -2.250267	 
0.016200	 0.248706	 0.025403	 0.980133	 0.178957	 -2.250279	 
0.016300	 0.248690	 0.025559	 0.979921	 0.179946	 -2.250291	 
0.016400	 0.248674	 0.025715	 0.979708	 0.180933	 -2.250304	 
0.016500	 0.248658	 0.025872	 0.979495	 0.181920	 -2.250316	 
0.016600	 0.248641	 0.026028	 0.979280	 0.182905	 -2.250329	 
0.016700	 0.248625	 0.026184	 0.979065	 0.183888	 -2.250341	 
0.016800	 0.248608	 0.026340	 0.978849	 0.184871	 -2.250354	 
0.016900	 0.248592	 0.026497	 0.978632	 0.185852	 -2.250367	 
0.017000	 0.248575	 0.026653	 0.978414	 0.186832	 -2.250379	 
0.017100	 0.248558	 0.026809	 0.978195	 0.187811	 -2.250392	 
0.017200	 0.248542	 0.026965	 0.977976	 0.188789	 -2.250405	 
0.017300	 0.248525	 0.027121	 0.977755	 0.189765	 -2.250418	 
0.017400	 0.248507	 0.027277	 0.977534	 0.190740	 -2.250431	 
0.017500	 0.248490	 0.027434	 0.977312	 0.191713	 -2.250444	 
0.017600	 0.248473	 0.027590	 0.977090	 0.192686	 -2.250457	 
0.017700	 0.248456	 0.027746	 0.976866	 0.193657	 -2.250470	 
0.017800	 0.248438	 0.027902	 0.976642	 0.194627	 -2.250484	 
0.017900	 0.248421	 0.028058	 0.976417	 0.195596	 -2.250497	 
0.018000	 0.248403	 0.028214	 0.976191	 0.196563	 -2.250510	 
0.018100	 0.248385	 0.028370	 0.975965	 0.197529	 -2.250524	 
0.018200	 0.248367	 0.028526	 0.975737	 0.198494	 -2.250537	 
0.018300	 0.248349	 0.028682	 0.975509	 0.199458	 -2.250551	 
0.018400	 0.248331	 0.028838	 0.975280	 0.200421	 -2.250564	 
0.018500	 0.248313	 0.028994	 0.975051	 0.201382	 -2.250578	 
0.018600	 0.248295	 0.029150	 0.974820	 0.202342	 -2.250592	 
0.018700	 0.248276	 0.029306	 0.974589	 0.203301	 -2.250605	 
0.018800	 0.248258	 0.029462	 0.974357	 0.204258	 -2.250619	 
0.018900	 0.248239	 0.029618	 0.974124	 0.205215	 -2.250633	 
0.019000	 0.248221	 0.029774	 0.973891	 0.206170	 -2.250647	 
0.019100	 0.248202	 0.029930	 0.973657	 0.207124	 -2.250661	 
0.019200	 0.248183	 0.030086	 0.973422	 0.208076	 -2.250675	 
0.019300	 0.248164	 0.030242	 0.973186	 0.209028	 -2.250689	 
0.019400	 0.248145	 0.030398	 0.972950	 0.209978	 -2.250703	 
0.019500	 0.248126	 0.030554	 0.972712	 0.210927	 -2.250717	 
0.019600	 0.248107	 0.030710	 0.972474	 0.211874	 -2.250731	 
0.019700	 0.248087	 0.030866	 0.972236	 0.212821	 -2.250746	 
0.019800	 0.248068	 0.031022	 0.971997	 0.213766	 -2.250760	 
0.019900	 0.248048	 0.031177	 0.971756	 0.214710	 -2.250774	 
0.020000	 0.248029	 0.031333	 0.971516	 0.215653	 -2.250789	 
0.020100	 0.248009	 0.031489	 0.971274	 0.216595	 -2.250803	 
0.020200	 0.247989	 0.031645	 0.971032	 0.217536	 -2.250818	 
0.020300	 0.247969	 0.031801	 0.970789	 0.218475	 -2.250833	 
0.020400	 0.247949	 0.031957	 0.970545	 0.219413	 -2.250847	 
0.020500	 0.247929	 0.032112	 0.970301	 0.220350	 -2.250862	 
0.020600	 0.247909	 0.032268	 0.970056	 0.221285	 -2.250877	 
0.020700	 0.247888	 0.032424	 0.969810	 0.222220	 -2.250892	 
0.020800	 0.247868	 0.032580	 0.969564	 0.223153	 -2.250906	 
0.020900	 0.247848	 0.032735	 0.969317	 0.224085	 -2.250921	 
0.021000	 0.247827	 0.032891	 0.969069	 0.225016	 -2.250936	 
0.021100	 0.247806	 0.033047	 0.968821	 0.225946	 -2.250951	 
0.021200	 0.247785	 0.033202	 0.968571	 0.226875	 -2.250967	 
0.021300	 0.247764	 0.033358	 0.968322	 0.227802	 -2.250982	 
0.021400	 0.247743	 0.033514	 0.968071	 0.228728	 -2.250997	 
0.021500	 0.247722	 0.033669	 0.967820	 0.229653	 -2.251012	 
0.021600	 0.247701	 0.033825	 0.967568	 0.230577	 -2.251027	 
0.021700	 0.247680	 0.033981	 0.967316	 0.231499	 -2.251043	 
0.021800	 0.247658	 0.034136	 0.967062	 0.232421	 -2.251058	 
0.021900	 0.247637	 0.034292	 0.966808	 0.233341	 -2.251074	 
0.022000	 0.247615	 0.034448	 0.966554	 0.234260	 -2.251089	 
0.022100	 0.247594	 0.034603	 0.966299	 0.235178	 -2.251105	 
0.022200	 0.247572	 0.034759	 0.966043	 0.236095	 -2.251120	 
0.022300	 0.247550	 0.034914	 0.965786	 0.237010	 -2.251136	 
0.022400	 0.247528	 0.035070	 0.965529	 0.237925	 -2.251152	 
0.022500	 0.247506	 0.035225	 0.965272	 0.238838	 -2.251167	 
0.022600	 0.247484	 0.035381	 0.965013	 0.239750	 -2.251183	 
0.022700	 0.247461	 0.035536	 0.964754	 0.240661	 -2.251199	 
0.022800	 0.247439	 0.035692	 0.964494	 0.241571	 -2.251215	 
0.022900	 0.247417	 0.035847	 0.964234	 0.242480	 -2.251231	 
0.023000	 0.247394	 0.036003	 0.963973	 0.243387	 -2.251247	 
0.023100	 0.247371	 0.036158	 0.963711	 0.244293	 -2.251263	 
0.023200	 0.247349	 0.036314	 0.963449	 0.245198	 -2.251279	 
0.023300	 0.247326	 0.036469	 0.963186	 0.246102	 -2.251295	 
0.023400	 0.247303	 0.036624	 0.962923	 0.247005	 -2.251311	 
0.023500	 0.247280	 0.036780	 0.962659	 0.247907	 -2.251328	 
0.023600	 0.247257	 0.036935	 0.962394	 0.248808	 -2.251344	 
0.023700	 0.247233	 0.037090	 0.962129	 0.249707	 -2.251360	 
0.023800	 0.247210	 0.037246	 0.961863	 0.250605	 -2.251377	 
0.023900	 0.247186	 0.037401	 0.961596	 0.251502	 -2.251393	 
0.024000	 0.247163	 0.037556	 0.961329	 0.252399	 -2.251410	 
0.024100	 0.247139	 0.037712	 0.961061	 0.253293	 -2.251426	 
0.024200	 0.247116	 0.037867	 0.960793	 0.254187	 -2.251443	 
0.024300	 0.247092	 0.038022	 0.960524	 0.255080	 -2.251459	 
0.024400	 0.247068	 0.038177	 0.960254	 0.255971	 -2.251476	 
0.024500	 0.247044	 0.038333	 0.959984	 0.256862	 -2.251493	 
0.024600	 0.247020	 0.038488	 0.959713	 0.257751	 -2.251510	 
0.024700	 0.246995	 0.038643	 0.959442	 0.258639	 -2.251526	 
0.024800	 0.246971	 0.038798	 0.959170	 0.259526	 -2.251543	 
0.024900	 0.246947	 0.038953	 0.958897	 0.260412	 -2.251560	 
0.025000	 0.246922	 0.039109	 0.958624	 0.261297	 -2.251577	 
0.025100	 0.246897	 0.039264	 0.958351	 0.262180	 -2.251594	 
0.025200	 0.246873	 0.039419	 0.958076	 0.263063	 -2.251611	 
0.025300	 0.246848	 0.039574	 0.957801	 0.263944	 -2.251628	 
0.025400	 0.246823	 0.039729	 0.957526	 0.264824	 -2.251645	 
0.025500	 0.246798	 0.039884	 0.957250	 0.265704	 -2.251663	 
0.025600	 0.246773	 0.040039	 0.956974	 0.266582	 -2.251680	 
0.025700	 0.246748	 0.040194	 0.956696	 0.267459	 -2.251697	 
0.025800	 0.246722	 0.040349	 0.956419	 0.268335	 -2.251714	 
0.025900	 0.246697	 0.040504	 0.956140	 0.269209	 -2.251732	 
0.026000	 0.246671	 0.040659	 0.955862	 0.270083	 -2.251749	 
0.026100	 0.246646	 0.040814	 0.955582	 0.270956	 -2.251767	 
0.026200	 0.246620	 0.040969	 0.955302	 0.271827	 -2.251784	 
0.026300	 0.246594	 0.041124	 0.955022	 0.272697	 -2.251802	 
0.026400	 0.246569	 0.041279	 0.954741	 0.273567	 -2.251819	 
0.026500	 0.246543	 0.041434	 0.954459	 0.274435	 -2.251837	 
0.026600	 0.246516	 0.041589	 0.954177	 0.275302	 -2.251855	 
0.026700	 0.246490	 0.041744	 0.953894	 0.276168	 -2.251872	 
0.026800	 0.246464	 0.041899	 0.953611	 0.277033	 -2.251890	 
0.026900	 0.246438	 0.042054	 0.953327	 0.277897	 -2.251908	 
0.027000	 0.246411	 0.042208	 0.953043	 0.278760	 -2.251926	 
0.027100	 0.246385	 0.042363	 0.952758	 0.279621	 -2.251944	 
0.027200	 0.246358	 0.042518	 0.952473	 0.280482	 -2.251962	 
0.027300	 0.246331	 0.042673	 0.952187	 0.281342	 -2.251980	 
0.027400	 0.246304	 0.042828	 0.951900	 0.282200	 -2.251998	 
0.027500	 0.246277	 0.042982	 0.951614	 0.283057	 -2.252016	 
0.027600	 0.246250	 0.043137	 0.951326	 0.283914	 -2.252034	 
0.027700	 0.246223	 0.043292	 0.951038	 0.284769	 -2.252052	 
0.027800	 0.246196	 0.043446	 0.950749	 0.285623	 -2.252070	 
0.027900	 0.246169	 0.043601	 0.950460	 0.286476	 -2.252089	 
0.028000	 0.246141	 0.043756	 0.950171	 0.287328	 -2.252107	 
0.028100	 0.246114	 0.043910	 0.949881	 0.288179	 -2.252125	 
0.028200	 0.246086	 0.044065	 0.949590	 0.289029	 -2.252144	 
0.028300	 0.246058	 0.044220	 0.949299	 0.289878	 -2.252162	 
0.028400	 0.246030	 0.044374	 0.949007	 0.290726	 -2.252180	 
0.028500	 0.246002	 0.044529	 0.948715	 0.291573	 -2.252199	 
0.028600	 0.245974	 0.044683	 0.948423	 0.292418	 -2.252217	 
0.028700	 0.245946	 0.044838	 0.948130	 0.293263	 -2.252236	 
0.028800	 0.245918	 0.044992	 0.947836	 0.294107	 -2.252255	 
0.028900	 0.245890	 0.045147	 0.947542	 0.294949	 -2.252273	 
0.029000	 0.245861	 0.045301	 0.947247	 0.295791	 -2.252292	 
0.029100	 0.245833	 0.045456	 0.946952	 0.296631	 -2.252311	 
0.029200	 0.245804	 0.045610	 0.946656	 0.297471	 -2.252330	 
0.029300	 0.245775	 0.045765	 0.946360	 0.298309	 -2.252348	 
0.029400	 0.245747	 0.045919	 0.946064	 0.299146	 -2.252367	 
0.029500	 0.245718	 0.046074	 0.945767	 0.299983	 -2.252386	 
0.029600	 0.245689	 0.046228	 0.945469	 0.300818	 -2.252405	 
0.029700	 0.245660	 0.046382	 0.945171	 0.301652	 -2.252424	 
0.029800	 0.245630	 0.046537	 0.944872	 0.302485	 -2.252443	 
0.029900	 0.245601	 0.046691	 0.944573	 0.303317	 -2.252462	 
0.030000	 0.245572	 0.046845	 0.944274	 0.304149	 -2.252481	 
0.030100	 0.245542	 0.047000	 0.943974	 0.304979	 -2.252501	 
0.030200	 0.245513	 0.047154	 0.943674	 0.305808	 -2.252520	 
0.030300	 0.245483	 0.047308	 0.943373	 0.306636	 -2.252539	 
0.030400	 0.245453	 0.047462	 0.943071	 0.307463	 -2.252558	 
0.030500	 0.245423	 0.047617	 0.942769	 0.308289	 -2.252578	 
0.030600	 0.245393	 0.047771	 0.942467	 0.309114	 -2.252597	 
0.030700	 0.245363	 0.047925	 0.942164	 0.309938	 -2.252616	 
0.030800	 0.245333	 0.048079	 0.941861	 0.310761	 -2.252636	 
0.030900	 0.245303	 0.048233	 0.941557	 0.311583	 -2.252655	 
0.031000	 0.245273	 0.048387	 0.941253	 0.312404	 -2.252675	 
0.031100	 0.245242	 0.048541	 0.940948	 0.313224	 -2.252694	 
0.031200	 0.245212	 0.048696	 0.940643	 0.314043	 -2.252714	 
0.031300	 0.245181	 0.048850	 0.940338	 0.314861	 -2.252734	 
0.031400	 0.245150	 0.049004	 0.940032	 0.315677	 -2.252753	 
0.031500	 0.245119	 0.049158	 0.939725	 0.316493	 -2.252773	 
