
theta(h[:])	 h[0]	 h[1]	 <m[0]>	 <m[1]>	 <E>	 dim_{Lat}=2	 L=128,128	 J=1.000000,1.000000	 {/Symbol s}_J=0.000000,0.000000	 <J_{ij}>=0.000000,0.000000	 dim_(Spin}=2	 h=-,0.000000	 {/Symbol s}_h=0.500000,0.000000	 <h_i>=0.000562,0.000000	 order=1.000000,0.000000	 order_h=0	 order_r=1	 MCS/{/Symbol d}h=1/0.000100	 

Updating all (first)black/(then)white checkerboard sites simultaneously.. 
0.000000	 0.250000	 0.000000	 1.000000	 -0.000000	 -2.250562	 
0.000100	 0.250000	 0.000157	 0.999999	 0.001246	 -2.250562	 
0.000200	 0.250000	 0.000314	 0.999995	 0.002491	 -2.250563	 
0.000300	 0.250000	 0.000471	 0.999989	 0.003736	 -2.250563	 
0.000400	 0.249999	 0.000628	 0.999981	 0.004980	 -2.250563	 
0.000500	 0.249999	 0.000785	 0.999971	 0.006223	 -2.250564	 
0.000600	 0.249998	 0.000942	 0.999958	 0.007466	 -2.250564	 
0.000700	 0.249998	 0.001100	 0.999943	 0.008707	 -2.250565	 
0.000800	 0.249997	 0.001257	 0.999926	 0.009947	 -2.250566	 
0.000900	 0.249996	 0.001414	 0.999907	 0.011185	 -2.250566	 
0.001000	 0.249995	 0.001571	 0.999885	 0.012422	 -2.250567	 
0.001100	 0.249994	 0.001728	 0.999861	 0.013657	 -2.250568	 
0.001200	 0.249993	 0.001885	 0.999836	 0.014890	 -2.250569	 
0.001300	 0.249992	 0.002042	 0.999808	 0.016122	 -2.250571	 
0.001400	 0.249990	 0.002199	 0.999778	 0.017351	 -2.250572	 
0.001500	 0.249989	 0.002356	 0.999746	 0.018579	 -2.250573	 
0.001600	 0.249987	 0.002513	 0.999712	 0.019805	 -2.250575	 
0.001700	 0.249986	 0.002670	 0.999676	 0.021029	 -2.250576	 
0.001800	 0.249984	 0.002827	 0.999638	 0.022251	 -2.250578	 
0.001900	 0.249982	 0.002984	 0.999598	 0.023471	 -2.250580	 
0.002000	 0.249980	 0.003142	 0.999557	 0.024690	 -2.250582	 
0.002100	 0.249978	 0.003299	 0.999513	 0.025906	 -2.250584	 
0.002200	 0.249976	 0.003456	 0.999468	 0.027120	 -2.250586	 
0.002300	 0.249974	 0.003613	 0.999420	 0.028333	 -2.250588	 
0.002400	 0.249972	 0.003770	 0.999371	 0.029543	 -2.250590	 
0.002500	 0.249969	 0.003927	 0.999320	 0.030752	 -2.250592	 
0.002600	 0.249967	 0.004084	 0.999268	 0.031958	 -2.250595	 
0.002700	 0.249964	 0.004241	 0.999213	 0.033163	 -2.250597	 
0.002800	 0.249961	 0.004398	 0.999157	 0.034366	 -2.250600	 
0.002900	 0.249958	 0.004555	 0.999099	 0.035567	 -2.250603	 
0.003000	 0.249956	 0.004712	 0.999039	 0.036766	 -2.250605	 
0.003100	 0.249953	 0.004869	 0.998978	 0.037964	 -2.250608	 
0.003200	 0.249949	 0.005026	 0.998915	 0.039159	 -2.250611	 
0.003300	 0.249946	 0.005183	 0.998850	 0.040353	 -2.250614	 
0.003400	 0.249943	 0.005340	 0.998784	 0.041545	 -2.250617	 
0.003500	 0.249940	 0.005497	 0.998716	 0.042735	 -2.250620	 
0.003600	 0.249936	 0.005654	 0.998646	 0.043923	 -2.250624	 
0.003700	 0.249932	 0.005811	 0.998575	 0.045110	 -2.250627	 
0.003800	 0.249929	 0.005968	 0.998502	 0.046294	 -2.250631	 
0.003900	 0.249925	 0.006125	 0.998427	 0.047477	 -2.250634	 
0.004000	 0.249921	 0.006283	 0.998351	 0.048659	 -2.250638	 
0.004100	 0.249917	 0.006440	 0.998273	 0.049838	 -2.250642	 
0.004200	 0.249913	 0.006597	 0.998194	 0.051016	 -2.250645	 
0.004300	 0.249909	 0.006754	 0.998113	 0.052192	 -2.250649	 
0.004400	 0.249904	 0.006911	 0.998030	 0.053366	 -2.250653	 
0.004500	 0.249900	 0.007068	 0.997946	 0.054539	 -2.250657	 
0.004600	 0.249896	 0.007225	 0.997861	 0.055710	 -2.250662	 
0.004700	 0.249891	 0.007382	 0.997773	 0.056879	 -2.250666	 
0.004800	 0.249886	 0.007539	 0.997685	 0.058046	 -2.250670	 
0.004900	 0.249882	 0.007696	 0.997595	 0.059212	 -2.250675	 
0.005000	 0.249877	 0.007853	 0.997503	 0.060376	 -2.250679	 
0.005100	 0.249872	 0.008010	 0.997410	 0.061539	 -2.250684	 
0.005200	 0.249867	 0.008167	 0.997315	 0.062699	 -2.250688	 
0.005300	 0.249861	 0.008324	 0.997219	 0.063859	 -2.250693	 
0.005400	 0.249856	 0.008481	 0.997121	 0.065016	 -2.250698	 
0.005500	 0.249851	 0.008638	 0.997022	 0.066172	 -2.250703	 
0.005600	 0.249845	 0.008795	 0.996922	 0.067326	 -2.250708	 
0.005700	 0.249840	 0.008952	 0.996820	 0.068478	 -2.250713	 
0.005800	 0.249834	 0.009109	 0.996716	 0.069629	 -2.250718	 
0.005900	 0.249828	 0.009266	 0.996611	 0.070778	 -2.250724	 
0.006000	 0.249822	 0.009423	 0.996505	 0.071926	 -2.250729	 
0.006100	 0.249816	 0.009580	 0.996397	 0.073072	 -2.250734	 
0.006200	 0.249810	 0.009736	 0.996288	 0.074216	 -2.250740	 
0.006300	 0.249804	 0.009893	 0.996178	 0.075359	 -2.250745	 
0.006400	 0.249798	 0.010050	 0.996066	 0.076500	 -2.250751	 
0.006500	 0.249792	 0.010207	 0.995953	 0.077639	 -2.250757	 
0.006600	 0.249785	 0.010364	 0.995838	 0.078777	 -2.250763	 
0.006700	 0.249779	 0.010521	 0.995722	 0.079913	 -2.250769	 
0.006800	 0.249772	 0.010678	 0.995605	 0.081048	 -2.250775	 
0.006900	 0.249765	 0.010835	 0.995486	 0.082181	 -2.250781	 
0.007000	 0.249758	 0.010992	 0.995366	 0.083312	 -2.250787	 
0.007100	 0.249751	 0.011149	 0.995245	 0.084442	 -2.250793	 
0.007200	 0.249744	 0.011306	 0.995122	 0.085570	 -2.250799	 
0.007300	 0.249737	 0.011463	 0.994998	 0.086697	 -2.250806	 
0.007400	 0.249730	 0.011620	 0.994873	 0.087822	 -2.250812	 
0.007500	 0.249722	 0.011777	 0.994746	 0.088945	 -2.250819	 
0.007600	 0.249715	 0.011934	 0.994618	 0.090067	 -2.250826	 
0.007700	 0.249707	 0.012090	 0.994489	 0.091188	 -2.250832	 
0.007800	 0.249700	 0.012247	 0.994359	 0.092306	 -2.250839	 
0.007900	 0.249692	 0.012404	 0.994227	 0.093423	 -2.250846	 
0.008000	 0.249684	 0.012561	 0.994094	 0.094539	 -2.250853	 
0.008100	 0.249676	 0.012718	 0.993959	 0.095653	 -2.250860	 
0.008200	 0.249668	 0.012875	 0.993824	 0.096765	 -2.250867	 
0.008300	 0.249660	 0.013032	 0.993687	 0.097876	 -2.250874	 
0.008400	 0.249652	 0.013189	 0.993549	 0.098985	 -2.250881	 
0.008500	 0.249644	 0.013345	 0.993410	 0.100093	 -2.250889	 
0.008600	 0.249635	 0.013502	 0.993269	 0.101199	 -2.250896	 
0.008700	 0.249627	 0.013659	 0.993127	 0.102303	 -2.250904	 
0.008800	 0.249618	 0.013816	 0.992984	 0.103406	 -2.250911	 
0.008900	 0.249609	 0.013973	 0.992840	 0.104507	 -2.250919	 
0.009000	 0.249600	 0.014130	 0.992695	 0.105607	 -2.250927	 
0.009100	 0.249591	 0.014286	 0.992548	 0.106706	 -2.250934	 
0.009200	 0.249582	 0.014443	 0.992401	 0.107802	 -2.250942	 
0.009300	 0.249573	 0.014600	 0.992252	 0.108897	 -2.250950	 
0.009400	 0.249564	 0.014757	 0.992102	 0.109991	 -2.250958	 
0.009500	 0.249555	 0.014914	 0.991950	 0.111083	 -2.250966	 
0.009600	 0.249545	 0.015071	 0.991798	 0.112174	 -2.250974	 
0.009700	 0.249536	 0.015227	 0.991644	 0.113263	 -2.250983	 
0.009800	 0.249526	 0.015384	 0.991489	 0.114350	 -2.250991	 
0.009900	 0.249516	 0.015541	 0.991334	 0.115436	 -2.250999	 
0.010000	 0.249507	 0.015698	 0.991176	 0.116520	 -2.251008	 
0.010100	 0.249497	 0.015854	 0.991018	 0.117603	 -2.251016	 
0.010200	 0.249487	 0.016011	 0.990859	 0.118684	 -2.251025	 
0.010300	 0.249477	 0.016168	 0.990699	 0.119764	 -2.251034	 
0.010400	 0.249466	 0.016325	 0.990537	 0.120843	 -2.251042	 
0.010500	 0.249456	 0.016481	 0.990374	 0.121919	 -2.251051	 
0.010600	 0.249446	 0.016638	 0.990211	 0.122994	 -2.251060	 
0.010700	 0.249435	 0.016795	 0.990046	 0.124068	 -2.251069	 
0.010800	 0.249425	 0.016952	 0.989880	 0.125140	 -2.251078	 
0.010900	 0.249414	 0.017108	 0.989713	 0.126211	 -2.251087	 
0.011000	 0.249403	 0.017265	 0.989545	 0.127280	 -2.251096	 
0.011100	 0.249392	 0.017422	 0.989375	 0.128348	 -2.251106	 
0.011200	 0.249381	 0.017578	 0.989205	 0.129414	 -2.251115	 
0.011300	 0.249370	 0.017735	 0.989034	 0.130478	 -2.251124	 
0.011400	 0.249359	 0.017892	 0.988861	 0.131542	 -2.251134	 
0.011500	 0.249348	 0.018048	 0.988688	 0.132603	 -2.251143	 
0.011600	 0.249336	 0.018205	 0.988513	 0.133663	 -2.251153	 
0.011700	 0.249325	 0.018362	 0.988338	 0.134722	 -2.251163	 
0.011800	 0.249313	 0.018518	 0.988161	 0.135779	 -2.251172	 
0.011900	 0.249302	 0.018675	 0.987984	 0.136835	 -2.251182	 
0.012000	 0.249290	 0.018832	 0.987805	 0.137889	 -2.251192	 
0.012100	 0.249278	 0.018988	 0.987626	 0.138941	 -2.251202	 
0.012200	 0.249266	 0.019145	 0.987445	 0.139992	 -2.251212	 
0.012300	 0.249254	 0.019302	 0.987263	 0.141042	 -2.251222	 
0.012400	 0.249242	 0.019458	 0.987081	 0.142090	 -2.251232	 
0.012500	 0.249229	 0.019615	 0.986897	 0.143137	 -2.251242	 
0.012600	 0.249217	 0.019771	 0.986712	 0.144182	 -2.251253	 
0.012700	 0.249204	 0.019928	 0.986527	 0.145226	 -2.251263	 
0.012800	 0.249192	 0.020085	 0.986340	 0.146268	 -2.251273	 
0.012900	 0.249179	 0.020241	 0.986152	 0.147309	 -2.251284	 
0.013000	 0.249166	 0.020398	 0.985964	 0.148348	 -2.251294	 
0.013100	 0.249154	 0.020554	 0.985774	 0.149386	 -2.251305	 
0.013200	 0.249141	 0.020711	 0.985584	 0.150423	 -2.251316	 
0.013300	 0.249128	 0.020867	 0.985392	 0.151458	 -2.251327	 
0.013400	 0.249114	 0.021024	 0.985200	 0.152491	 -2.251337	 
0.013500	 0.249101	 0.021180	 0.985006	 0.153523	 -2.251348	 
0.013600	 0.249088	 0.021337	 0.984812	 0.154554	 -2.251359	 
0.013700	 0.249074	 0.021493	 0.984617	 0.155583	 -2.251370	 
0.013800	 0.249061	 0.021650	 0.984421	 0.156611	 -2.251381	 
0.013900	 0.249047	 0.021806	 0.984223	 0.157637	 -2.251392	 
0.014000	 0.249033	 0.021963	 0.984025	 0.158662	 -2.251404	 
0.014100	 0.249020	 0.022119	 0.983826	 0.159685	 -2.251415	 
0.014200	 0.249006	 0.022276	 0.983626	 0.160707	 -2.251426	 
0.014300	 0.248992	 0.022432	 0.983426	 0.161728	 -2.251438	 
0.014400	 0.248977	 0.022589	 0.983224	 0.162747	 -2.251449	 
0.014500	 0.248963	 0.022745	 0.983021	 0.163764	 -2.251461	 
0.014600	 0.248949	 0.022901	 0.982818	 0.164781	 -2.251472	 
0.014700	 0.248934	 0.023058	 0.982613	 0.165795	 -2.251484	 
0.014800	 0.248920	 0.023214	 0.982408	 0.166809	 -2.251496	 
0.014900	 0.248905	 0.023371	 0.982202	 0.167821	 -2.251507	 
0.015000	 0.248890	 0.023527	 0.981995	 0.168831	 -2.251519	 
0.015100	 0.248876	 0.023683	 0.981787	 0.169840	 -2.251531	 
0.015200	 0.248861	 0.023840	 0.981578	 0.170848	 -2.251543	 
0.015300	 0.248846	 0.023996	 0.981368	 0.171854	 -2.251555	 
0.015400	 0.248831	 0.024153	 0.981158	 0.172859	 -2.251567	 
0.015500	 0.248815	 0.024309	 0.980947	 0.173863	 -2.251580	 
0.015600	 0.248800	 0.024465	 0.980734	 0.174865	 -2.251592	 
0.015700	 0.248785	 0.024622	 0.980521	 0.175865	 -2.251604	 
0.015800	 0.248769	 0.024778	 0.980307	 0.176865	 -2.251616	 
0.015900	 0.248753	 0.024934	 0.980092	 0.177863	 -2.251629	 
0.016000	 0.248738	 0.025090	 0.979877	 0.178859	 -2.251641	 
0.016100	 0.248722	 0.025247	 0.979660	 0.179854	 -2.251654	 
0.016200	 0.248706	 0.025403	 0.979443	 0.180848	 -2.251666	 
0.016300	 0.248690	 0.025559	 0.979225	 0.181840	 -2.251679	 
0.016400	 0.248674	 0.025715	 0.979006	 0.182831	 -2.251692	 
0.016500	 0.248658	 0.025872	 0.978786	 0.183821	 -2.251705	 
0.016600	 0.248641	 0.026028	 0.978566	 0.184809	 -2.251717	 
0.016700	 0.248625	 0.026184	 0.978344	 0.185796	 -2.251730	 
0.016800	 0.248608	 0.026340	 0.978122	 0.186781	 -2.251743	 
0.016900	 0.248592	 0.026497	 0.977899	 0.187765	 -2.251756	 
0.017000	 0.248575	 0.026653	 0.977675	 0.188748	 -2.251769	 
0.017100	 0.248558	 0.026809	 0.977451	 0.189730	 -2.251783	 
0.017200	 0.248542	 0.026965	 0.977226	 0.190710	 -2.251796	 
0.017300	 0.248525	 0.027121	 0.976999	 0.191688	 -2.251809	 
0.017400	 0.248507	 0.027277	 0.976772	 0.192665	 -2.251822	 
0.017500	 0.248490	 0.027434	 0.976545	 0.193641	 -2.251836	 
0.017600	 0.248473	 0.027590	 0.976316	 0.194616	 -2.251849	 
0.017700	 0.248456	 0.027746	 0.976087	 0.195589	 -2.251863	 
0.017800	 0.248438	 0.027902	 0.975857	 0.196561	 -2.251876	 
0.017900	 0.248421	 0.028058	 0.975626	 0.197532	 -2.251890	 
0.018000	 0.248403	 0.028214	 0.975395	 0.198501	 -2.251903	 
0.018100	 0.248385	 0.028370	 0.975162	 0.199469	 -2.251917	 
0.018200	 0.248367	 0.028526	 0.974929	 0.200435	 -2.251931	 
0.018300	 0.248349	 0.028682	 0.974695	 0.201401	 -2.251945	 
0.018400	 0.248331	 0.028838	 0.974461	 0.202364	 -2.251959	 
0.018500	 0.248313	 0.028994	 0.974226	 0.203327	 -2.251973	 
0.018600	 0.248295	 0.029150	 0.973990	 0.204288	 -2.251987	 
0.018700	 0.248276	 0.029306	 0.973753	 0.205248	 -2.252001	 
0.018800	 0.248258	 0.029462	 0.973515	 0.206207	 -2.252015	 
0.018900	 0.248239	 0.029618	 0.973277	 0.207164	 -2.252029	 
0.019000	 0.248221	 0.029774	 0.973038	 0.208120	 -2.252043	 
0.019100	 0.248202	 0.029930	 0.972798	 0.209075	 -2.252057	 
0.019200	 0.248183	 0.030086	 0.972558	 0.210028	 -2.252072	 
0.019300	 0.248164	 0.030242	 0.972317	 0.210980	 -2.252086	 
0.019400	 0.248145	 0.030398	 0.972075	 0.211931	 -2.252101	 
0.019500	 0.248126	 0.030554	 0.971833	 0.212880	 -2.252115	 
0.019600	 0.248107	 0.030710	 0.971589	 0.213828	 -2.252130	 
0.019700	 0.248087	 0.030866	 0.971345	 0.214775	 -2.252144	 
0.019800	 0.248068	 0.031022	 0.971101	 0.215721	 -2.252159	 
0.019900	 0.248048	 0.031177	 0.970855	 0.216665	 -2.252174	 
0.020000	 0.248029	 0.031333	 0.970609	 0.217608	 -2.252188	 
0.020100	 0.248009	 0.031489	 0.970363	 0.218550	 -2.252203	 
0.020200	 0.247989	 0.031645	 0.970115	 0.219490	 -2.252218	 
0.020300	 0.247969	 0.031801	 0.969867	 0.220429	 -2.252233	 
0.020400	 0.247949	 0.031957	 0.969618	 0.221367	 -2.252248	 
0.020500	 0.247929	 0.032112	 0.969369	 0.222304	 -2.252263	 
0.020600	 0.247909	 0.032268	 0.969119	 0.223239	 -2.252278	 
0.020700	 0.247888	 0.032424	 0.968868	 0.224173	 -2.252293	 
0.020800	 0.247868	 0.032580	 0.968616	 0.225106	 -2.252309	 
0.020900	 0.247848	 0.032735	 0.968364	 0.226037	 -2.252324	 
0.021000	 0.247827	 0.032891	 0.968112	 0.226967	 -2.252339	 
0.021100	 0.247806	 0.033047	 0.967858	 0.227896	 -2.252354	 
0.021200	 0.247785	 0.033202	 0.967604	 0.228824	 -2.252370	 
0.021300	 0.247764	 0.033358	 0.967349	 0.229750	 -2.252385	 
0.021400	 0.247743	 0.033514	 0.967094	 0.230676	 -2.252401	 
0.021500	 0.247722	 0.033669	 0.966838	 0.231600	 -2.252416	 
0.021600	 0.247701	 0.033825	 0.966581	 0.232522	 -2.252432	 
0.021700	 0.247680	 0.033981	 0.966324	 0.233444	 -2.252448	 
0.021800	 0.247658	 0.034136	 0.966066	 0.234364	 -2.252463	 
0.021900	 0.247637	 0.034292	 0.965807	 0.235283	 -2.252479	 
0.022000	 0.247615	 0.034448	 0.965548	 0.236201	 -2.252495	 
0.022100	 0.247594	 0.034603	 0.965288	 0.237117	 -2.252511	 
0.022200	 0.247572	 0.034759	 0.965028	 0.238033	 -2.252527	 
0.022300	 0.247550	 0.034914	 0.964766	 0.238947	 -2.252543	 
0.022400	 0.247528	 0.035070	 0.964505	 0.239859	 -2.252559	 
0.022500	 0.247506	 0.035225	 0.964242	 0.240771	 -2.252575	 
0.022600	 0.247484	 0.035381	 0.963979	 0.241681	 -2.252591	 
0.022700	 0.247461	 0.035536	 0.963716	 0.242591	 -2.252607	 
0.022800	 0.247439	 0.035692	 0.963452	 0.243498	 -2.252623	 
0.022900	 0.247417	 0.035847	 0.963187	 0.244405	 -2.252640	 
0.023000	 0.247394	 0.036003	 0.962921	 0.245311	 -2.252656	 
0.023100	 0.247371	 0.036158	 0.962655	 0.246215	 -2.252672	 
0.023200	 0.247349	 0.036314	 0.962389	 0.247118	 -2.252689	 
0.023300	 0.247326	 0.036469	 0.962121	 0.248020	 -2.252705	 
0.023400	 0.247303	 0.036624	 0.961854	 0.248921	 -2.252722	 
0.023500	 0.247280	 0.036780	 0.961585	 0.249820	 -2.252738	 
0.023600	 0.247257	 0.036935	 0.961316	 0.250718	 -2.252755	 
0.023700	 0.247233	 0.037090	 0.961047	 0.251615	 -2.252772	 
0.023800	 0.247210	 0.037246	 0.960776	 0.252511	 -2.252788	 
0.023900	 0.247186	 0.037401	 0.960506	 0.253406	 -2.252805	 
0.024000	 0.247163	 0.037556	 0.960234	 0.254300	 -2.252822	 
0.024100	 0.247139	 0.037712	 0.959962	 0.255192	 -2.252839	 
0.024200	 0.247116	 0.037867	 0.959690	 0.256083	 -2.252856	 
0.024300	 0.247092	 0.038022	 0.959417	 0.256973	 -2.252873	 
0.024400	 0.247068	 0.038177	 0.959143	 0.257862	 -2.252890	 
0.024500	 0.247044	 0.038333	 0.958869	 0.258749	 -2.252907	 
0.024600	 0.247020	 0.038488	 0.958594	 0.259636	 -2.252924	 
0.024700	 0.246995	 0.038643	 0.958319	 0.260521	 -2.252941	 
0.024800	 0.246971	 0.038798	 0.958043	 0.261405	 -2.252958	 
0.024900	 0.246947	 0.038953	 0.957767	 0.262288	 -2.252975	 
0.025000	 0.246922	 0.039109	 0.957490	 0.263170	 -2.252993	 
0.025100	 0.246897	 0.039264	 0.957212	 0.264050	 -2.253010	 
0.025200	 0.246873	 0.039419	 0.956934	 0.264930	 -2.253027	 
0.025300	 0.246848	 0.039574	 0.956655	 0.265808	 -2.253045	 
0.025400	 0.246823	 0.039729	 0.956376	 0.266685	 -2.253062	 
0.025500	 0.246798	 0.039884	 0.956096	 0.267561	 -2.253080	 
0.025600	 0.246773	 0.040039	 0.955816	 0.268436	 -2.253097	 
0.025700	 0.246748	 0.040194	 0.955535	 0.269310	 -2.253115	 
0.025800	 0.246722	 0.040349	 0.955254	 0.270182	 -2.253133	 
0.025900	 0.246697	 0.040504	 0.954972	 0.271053	 -2.253150	 
0.026000	 0.246671	 0.040659	 0.954690	 0.271924	 -2.253168	 
0.026100	 0.246646	 0.040814	 0.954407	 0.272793	 -2.253186	 
0.026200	 0.246620	 0.040969	 0.954123	 0.273661	 -2.253204	 
0.026300	 0.246594	 0.041124	 0.953839	 0.274528	 -2.253221	 
0.026400	 0.246569	 0.041279	 0.953555	 0.275393	 -2.253239	 
0.026500	 0.246543	 0.041434	 0.953270	 0.276258	 -2.253257	 
0.026600	 0.246516	 0.041589	 0.952984	 0.277121	 -2.253275	 
0.026700	 0.246490	 0.041744	 0.952698	 0.277984	 -2.253293	 
0.026800	 0.246464	 0.041899	 0.952411	 0.278845	 -2.253311	 
0.026900	 0.246438	 0.042054	 0.952124	 0.279705	 -2.253330	 
0.027000	 0.246411	 0.042208	 0.951837	 0.280564	 -2.253348	 
0.027100	 0.246385	 0.042363	 0.951549	 0.281422	 -2.253366	 
0.027200	 0.246358	 0.042518	 0.951260	 0.282278	 -2.253384	 
0.027300	 0.246331	 0.042673	 0.950971	 0.283134	 -2.253403	 
0.027400	 0.246304	 0.042828	 0.950681	 0.283988	 -2.253421	 
0.027500	 0.246277	 0.042982	 0.950391	 0.284842	 -2.253439	 
0.027600	 0.246250	 0.043137	 0.950100	 0.285694	 -2.253458	 
0.027700	 0.246223	 0.043292	 0.949809	 0.286545	 -2.253476	 
0.027800	 0.246196	 0.043446	 0.949518	 0.287395	 -2.253495	 
0.027900	 0.246169	 0.043601	 0.949225	 0.288244	 -2.253513	 
0.028000	 0.246141	 0.043756	 0.948933	 0.289092	 -2.253532	 
0.028100	 0.246114	 0.043910	 0.948640	 0.289939	 -2.253550	 
0.028200	 0.246086	 0.044065	 0.948346	 0.290784	 -2.253569	 
0.028300	 0.246058	 0.044220	 0.948052	 0.291629	 -2.253588	 
0.028400	 0.246030	 0.044374	 0.947758	 0.292472	 -2.253607	 
0.028500	 0.246002	 0.044529	 0.947463	 0.293315	 -2.253625	 
0.028600	 0.245974	 0.044683	 0.947167	 0.294156	 -2.253644	 
0.028700	 0.245946	 0.044838	 0.946871	 0.294996	 -2.253663	 
0.028800	 0.245918	 0.044992	 0.946575	 0.295836	 -2.253682	 
0.028900	 0.245890	 0.045147	 0.946278	 0.296674	 -2.253701	 
0.029000	 0.245861	 0.045301	 0.945980	 0.297511	 -2.253720	 
0.029100	 0.245833	 0.045456	 0.945682	 0.298347	 -2.253739	 
0.029200	 0.245804	 0.045610	 0.945384	 0.299181	 -2.253758	 
0.029300	 0.245775	 0.045765	 0.945085	 0.300015	 -2.253777	 
0.029400	 0.245747	 0.045919	 0.944786	 0.300848	 -2.253797	 
0.029500	 0.245718	 0.046074	 0.944486	 0.301680	 -2.253816	 
0.029600	 0.245689	 0.046228	 0.944186	 0.302510	 -2.253835	 
0.029700	 0.245660	 0.046382	 0.943885	 0.303340	 -2.253854	 
0.029800	 0.245630	 0.046537	 0.943584	 0.304168	 -2.253874	 
0.029900	 0.245601	 0.046691	 0.943283	 0.304996	 -2.253893	 
0.030000	 0.245572	 0.046845	 0.942981	 0.305822	 -2.253912	 
0.030100	 0.245542	 0.047000	 0.942678	 0.306647	 -2.253932	 
0.030200	 0.245513	 0.047154	 0.942375	 0.307472	 -2.253951	 
0.030300	 0.245483	 0.047308	 0.942072	 0.308295	 -2.253971	 
0.030400	 0.245453	 0.047462	 0.941768	 0.309117	 -2.253990	 
0.030500	 0.245423	 0.047617	 0.941464	 0.309938	 -2.254010	 
0.030600	 0.245393	 0.047771	 0.941159	 0.310758	 -2.254030	 
0.030700	 0.245363	 0.047925	 0.940854	 0.311577	 -2.254049	 
0.030800	 0.245333	 0.048079	 0.940549	 0.312395	 -2.254069	 
0.030900	 0.245303	 0.048233	 0.940243	 0.313212	 -2.254089	 
0.031000	 0.245273	 0.048387	 0.939936	 0.314028	 -2.254109	 
0.031100	 0.245242	 0.048541	 0.939629	 0.314843	 -2.254129	 
0.031200	 0.245212	 0.048696	 0.939322	 0.315657	 -2.254148	 
0.031300	 0.245181	 0.048850	 0.939014	 0.316470	 -2.254168	 
0.031400	 0.245150	 0.049004	 0.938706	 0.317281	 -2.254188	 
0.031500	 0.245119	 0.049158	 0.938398	 0.318092	 -2.254208	 
