
theta(h[:])	 h[0]	 h[1]	 <m[0]>	 <m[1]>	 <E>	 dim_{Lat}=2	 L=128,128	 J=1.000000,1.000000	 {/Symbol s}_J=0.000000,0.000000	 <J_{ij}>=0.000000,0.000000	 dim_(Spin}=2	 h=-,0.000000	 {/Symbol s}_h=0.500000,0.000000	 <h_i>=-0.003623,0.000000	 order=1.000000,0.000000	 order_h=0	 order_r=1	 MCS/{/Symbol d}h=1/0.000100	 

Updating all (first)black/(then)white checkerboard sites simultaneously.. 
0.000000	 0.250000	 0.000000	 0.999942	 -0.000898	 -2.246377	 
0.000100	 0.250000	 0.000157	 0.999936	 0.001073	 -2.246377	 
0.000200	 0.250000	 0.000314	 0.999933	 0.002786	 -2.246377	 
0.000300	 0.250000	 0.000471	 0.999847	 0.005882	 -2.246378	 
0.000400	 0.249999	 0.000628	 0.999814	 0.007300	 -2.246379	 
0.000500	 0.249999	 0.000785	 0.999780	 0.008686	 -2.246380	 
0.000600	 0.249998	 0.000942	 0.999746	 0.010051	 -2.246381	 
0.000700	 0.249998	 0.001100	 0.999710	 0.011399	 -2.246382	 
0.000800	 0.249997	 0.001257	 0.999672	 0.012734	 -2.246383	 
0.000900	 0.249996	 0.001414	 0.999634	 0.014058	 -2.246384	 
0.001000	 0.249995	 0.001571	 0.999593	 0.015373	 -2.246386	 
0.001100	 0.249994	 0.001728	 0.999551	 0.016680	 -2.246387	 
0.001200	 0.249993	 0.001885	 0.999508	 0.017979	 -2.246389	 
0.001300	 0.249992	 0.002042	 0.999462	 0.019272	 -2.246390	 
0.001400	 0.249990	 0.002199	 0.999415	 0.020558	 -2.246392	 
0.001500	 0.249989	 0.002356	 0.999367	 0.021840	 -2.246394	 
0.001600	 0.249987	 0.002513	 0.999317	 0.023116	 -2.246396	 
0.001700	 0.249986	 0.002670	 0.999265	 0.024387	 -2.246398	 
0.001800	 0.249984	 0.002827	 0.999211	 0.025653	 -2.246400	 
0.001900	 0.249982	 0.002984	 0.999156	 0.026915	 -2.246403	 
0.002000	 0.249980	 0.003142	 0.999099	 0.028173	 -2.246405	 
0.002100	 0.249978	 0.003299	 0.999041	 0.029427	 -2.246408	 
0.002200	 0.249976	 0.003456	 0.998981	 0.030677	 -2.246410	 
0.002300	 0.249974	 0.003613	 0.998919	 0.031924	 -2.246413	 
0.002400	 0.249972	 0.003770	 0.998856	 0.033167	 -2.246416	 
0.002500	 0.249969	 0.003927	 0.998791	 0.034407	 -2.246419	 
0.002600	 0.249967	 0.004084	 0.998725	 0.035643	 -2.246422	 
0.002700	 0.249964	 0.004241	 0.998657	 0.036876	 -2.246425	 
0.002800	 0.249961	 0.004398	 0.998588	 0.038106	 -2.246428	 
0.002900	 0.249958	 0.004555	 0.998517	 0.039334	 -2.246431	 
0.003000	 0.249956	 0.004712	 0.998444	 0.040558	 -2.246435	 
0.003100	 0.249953	 0.004869	 0.998370	 0.041779	 -2.246438	 
0.003200	 0.249949	 0.005026	 0.998294	 0.042997	 -2.246442	 
0.003300	 0.249946	 0.005183	 0.998217	 0.044213	 -2.246445	 
0.003400	 0.249943	 0.005340	 0.998138	 0.045426	 -2.246449	 
0.003500	 0.249940	 0.005497	 0.998058	 0.046637	 -2.246453	 
0.003600	 0.249936	 0.005654	 0.997977	 0.047844	 -2.246457	 
0.003700	 0.249932	 0.005811	 0.997893	 0.049050	 -2.246461	 
0.003800	 0.249929	 0.005968	 0.997809	 0.050252	 -2.246465	 
0.003900	 0.249925	 0.006125	 0.997723	 0.051453	 -2.246469	 
0.004000	 0.249921	 0.006283	 0.997635	 0.052650	 -2.246473	 
0.004100	 0.249917	 0.006440	 0.997546	 0.053846	 -2.246478	 
0.004200	 0.249913	 0.006597	 0.997456	 0.055039	 -2.246482	 
0.004300	 0.249909	 0.006754	 0.997364	 0.056230	 -2.246487	 
0.004400	 0.249904	 0.006911	 0.997271	 0.057418	 -2.246491	 
0.004500	 0.249900	 0.007068	 0.997176	 0.058605	 -2.246496	 
0.004600	 0.249896	 0.007225	 0.997080	 0.059789	 -2.246501	 
0.004700	 0.249891	 0.007382	 0.996982	 0.060970	 -2.246506	 
0.004800	 0.249886	 0.007539	 0.996884	 0.062150	 -2.246511	 
0.004900	 0.249882	 0.007696	 0.996783	 0.063328	 -2.246516	 
0.005000	 0.249877	 0.007853	 0.996682	 0.064503	 -2.246521	 
0.005100	 0.249872	 0.008010	 0.996579	 0.065676	 -2.246526	 
0.005200	 0.249867	 0.008167	 0.996474	 0.066847	 -2.246532	 
0.005300	 0.249861	 0.008324	 0.996369	 0.068016	 -2.246537	 
0.005400	 0.249856	 0.008481	 0.996262	 0.069183	 -2.246543	 
0.005500	 0.249851	 0.008638	 0.996153	 0.070348	 -2.246548	 
0.005600	 0.249845	 0.008795	 0.996044	 0.071511	 -2.246554	 
0.005700	 0.249840	 0.008952	 0.995933	 0.072672	 -2.246560	 
0.005800	 0.249834	 0.009109	 0.995820	 0.073831	 -2.246565	 
0.005900	 0.249828	 0.009266	 0.995707	 0.074988	 -2.246571	 
0.006000	 0.249822	 0.009423	 0.995592	 0.076144	 -2.246577	 
0.006100	 0.249816	 0.009580	 0.995475	 0.077297	 -2.246584	 
0.006200	 0.249810	 0.009736	 0.995358	 0.078448	 -2.246590	 
0.006300	 0.249804	 0.009893	 0.995239	 0.079597	 -2.246596	 
0.006400	 0.249798	 0.010050	 0.995119	 0.080745	 -2.246602	 
0.006500	 0.249792	 0.010207	 0.994997	 0.081890	 -2.246609	 
0.006600	 0.249785	 0.010364	 0.994875	 0.083034	 -2.246615	 
0.006700	 0.249779	 0.010521	 0.994751	 0.084176	 -2.246622	 
0.006800	 0.249772	 0.010678	 0.994626	 0.085316	 -2.246629	 
0.006900	 0.249765	 0.010835	 0.994499	 0.086454	 -2.246635	 
0.007000	 0.249758	 0.010992	 0.994372	 0.087591	 -2.246642	 
0.007100	 0.249751	 0.011149	 0.994243	 0.088725	 -2.246649	 
0.007200	 0.249744	 0.011306	 0.994113	 0.089858	 -2.246656	 
0.007300	 0.249737	 0.011463	 0.993981	 0.090989	 -2.246663	 
0.007400	 0.249730	 0.011620	 0.993849	 0.092118	 -2.246670	 
0.007500	 0.249722	 0.011777	 0.993715	 0.093246	 -2.246677	 
0.007600	 0.249715	 0.011934	 0.993580	 0.094371	 -2.246685	 
0.007700	 0.249707	 0.012090	 0.993444	 0.095495	 -2.246692	 
0.007800	 0.249700	 0.012247	 0.993307	 0.096618	 -2.246700	 
0.007900	 0.249692	 0.012404	 0.993168	 0.097738	 -2.246707	 
0.008000	 0.249684	 0.012561	 0.993028	 0.098857	 -2.246715	 
0.008100	 0.249676	 0.012718	 0.992888	 0.099974	 -2.246723	 
0.008200	 0.249668	 0.012875	 0.992745	 0.101089	 -2.246730	 
0.008300	 0.249660	 0.013032	 0.992602	 0.102203	 -2.246738	 
0.008400	 0.249652	 0.013189	 0.992458	 0.103315	 -2.246746	 
0.008500	 0.249644	 0.013345	 0.992312	 0.104425	 -2.246754	 
0.008600	 0.249635	 0.013502	 0.992166	 0.105534	 -2.246762	 
0.008700	 0.249627	 0.013659	 0.992018	 0.106641	 -2.246770	 
0.008800	 0.249618	 0.013816	 0.991869	 0.107746	 -2.246779	 
0.008900	 0.249609	 0.013973	 0.991719	 0.108850	 -2.246787	 
0.009000	 0.249600	 0.014130	 0.991568	 0.109952	 -2.246795	 
0.009100	 0.249591	 0.014286	 0.991415	 0.111052	 -2.246804	 
0.009200	 0.249582	 0.014443	 0.991262	 0.112151	 -2.246812	 
0.009300	 0.249573	 0.014600	 0.991107	 0.113248	 -2.246821	 
0.009400	 0.249564	 0.014757	 0.990952	 0.114343	 -2.246830	 
0.009500	 0.249555	 0.014914	 0.990795	 0.115437	 -2.246839	 
0.009600	 0.249545	 0.015071	 0.990637	 0.116529	 -2.246847	 
0.009700	 0.249536	 0.015227	 0.990478	 0.117620	 -2.246856	 
0.009800	 0.249526	 0.015384	 0.990318	 0.118709	 -2.246865	 
0.009900	 0.249516	 0.015541	 0.990157	 0.119796	 -2.246874	 
0.010000	 0.249507	 0.015698	 0.989995	 0.120882	 -2.246884	 
0.010100	 0.249497	 0.015854	 0.989831	 0.121966	 -2.246893	 
0.010200	 0.249487	 0.016011	 0.989667	 0.123049	 -2.246902	 
0.010300	 0.249477	 0.016168	 0.989502	 0.124130	 -2.246911	 
0.010400	 0.249466	 0.016325	 0.989335	 0.125209	 -2.246921	 
0.010500	 0.249456	 0.016481	 0.989168	 0.126287	 -2.246930	 
0.010600	 0.249446	 0.016638	 0.988999	 0.127364	 -2.246940	 
0.010700	 0.249435	 0.016795	 0.988829	 0.128438	 -2.246950	 
0.010800	 0.249425	 0.016952	 0.988659	 0.129512	 -2.246959	 
0.010900	 0.249414	 0.017108	 0.988487	 0.130583	 -2.246969	 
0.011000	 0.249403	 0.017265	 0.988314	 0.131654	 -2.246979	 
0.011100	 0.249392	 0.017422	 0.988141	 0.132722	 -2.246989	 
0.011200	 0.249381	 0.017578	 0.987966	 0.133789	 -2.246999	 
0.011300	 0.249370	 0.017735	 0.987790	 0.134855	 -2.247009	 
0.011400	 0.249359	 0.017892	 0.987613	 0.135919	 -2.247019	 
0.011500	 0.249348	 0.018048	 0.987436	 0.136981	 -2.247030	 
0.011600	 0.249336	 0.018205	 0.987257	 0.138042	 -2.247040	 
0.011700	 0.249325	 0.018362	 0.987077	 0.139102	 -2.247050	 
0.011800	 0.249313	 0.018518	 0.986896	 0.140160	 -2.247061	 
0.011900	 0.249302	 0.018675	 0.986715	 0.141216	 -2.247071	 
0.012000	 0.249290	 0.018832	 0.986532	 0.142271	 -2.247082	 
0.012100	 0.249278	 0.018988	 0.986348	 0.143325	 -2.247092	 
0.012200	 0.249266	 0.019145	 0.986164	 0.144377	 -2.247103	 
0.012300	 0.249254	 0.019302	 0.985978	 0.145427	 -2.247114	 
0.012400	 0.249242	 0.019458	 0.985791	 0.146476	 -2.247125	 
0.012500	 0.249229	 0.019615	 0.985604	 0.147524	 -2.247136	 
0.012600	 0.249217	 0.019771	 0.985415	 0.148570	 -2.247147	 
0.012700	 0.249204	 0.019928	 0.985226	 0.149614	 -2.247158	 
0.012800	 0.249192	 0.020085	 0.985036	 0.150657	 -2.247169	 
0.012900	 0.249179	 0.020241	 0.984844	 0.151699	 -2.247180	 
0.013000	 0.249166	 0.020398	 0.984652	 0.152739	 -2.247191	 
0.013100	 0.249154	 0.020554	 0.984459	 0.153778	 -2.247203	 
0.013200	 0.249141	 0.020711	 0.984265	 0.154815	 -2.247214	 
0.013300	 0.249128	 0.020867	 0.984069	 0.155851	 -2.247225	 
0.013400	 0.249114	 0.021024	 0.983873	 0.156885	 -2.247237	 
0.013500	 0.249101	 0.021180	 0.983677	 0.157918	 -2.247249	 
0.013600	 0.249088	 0.021337	 0.983479	 0.158949	 -2.247260	 
0.013700	 0.249074	 0.021493	 0.983280	 0.159979	 -2.247272	 
0.013800	 0.249061	 0.021650	 0.983080	 0.161008	 -2.247284	 
0.013900	 0.249047	 0.021806	 0.982880	 0.162035	 -2.247296	 
0.014000	 0.249033	 0.021963	 0.982678	 0.163061	 -2.247308	 
0.014100	 0.249020	 0.022119	 0.982476	 0.164085	 -2.247319	 
0.014200	 0.249006	 0.022276	 0.982273	 0.165108	 -2.247332	 
0.014300	 0.248992	 0.022432	 0.982069	 0.166129	 -2.247344	 
0.014400	 0.248977	 0.022589	 0.981864	 0.167149	 -2.247356	 
0.014500	 0.248963	 0.022745	 0.981658	 0.168167	 -2.247368	 
0.014600	 0.248949	 0.022901	 0.981451	 0.169185	 -2.247380	 
0.014700	 0.248934	 0.023058	 0.981243	 0.170200	 -2.247393	 
0.014800	 0.248920	 0.023214	 0.981035	 0.171215	 -2.247405	 
0.014900	 0.248905	 0.023371	 0.980826	 0.172227	 -2.247418	 
0.015000	 0.248890	 0.023527	 0.980615	 0.173239	 -2.247430	 
0.015100	 0.248876	 0.023683	 0.980404	 0.174249	 -2.247443	 
0.015200	 0.248861	 0.023840	 0.980192	 0.175258	 -2.247456	 
0.015300	 0.248846	 0.023996	 0.979980	 0.176265	 -2.247468	 
0.015400	 0.248831	 0.024153	 0.979766	 0.177271	 -2.247481	 
0.015500	 0.248815	 0.024309	 0.979552	 0.178276	 -2.247494	 
0.015600	 0.248800	 0.024465	 0.979336	 0.179279	 -2.247507	 
0.015700	 0.248785	 0.024622	 0.979120	 0.180280	 -2.247520	 
0.015800	 0.248769	 0.024778	 0.978903	 0.181281	 -2.247533	 
0.015900	 0.248753	 0.024934	 0.978686	 0.182280	 -2.247546	 
0.016000	 0.248738	 0.025090	 0.978467	 0.183277	 -2.247559	 
0.016100	 0.248722	 0.025247	 0.978248	 0.184274	 -2.247573	 
0.016200	 0.248706	 0.025403	 0.978027	 0.185269	 -2.247586	 
0.016300	 0.248690	 0.025559	 0.977806	 0.186262	 -2.247599	 
0.016400	 0.248674	 0.025715	 0.977585	 0.187254	 -2.247613	 
0.016500	 0.248658	 0.025872	 0.977362	 0.188245	 -2.247626	 
0.016600	 0.248641	 0.026028	 0.977139	 0.189235	 -2.247640	 
0.016700	 0.248625	 0.026184	 0.976914	 0.190223	 -2.247653	 
0.016800	 0.248608	 0.026340	 0.976689	 0.191209	 -2.247667	 
0.016900	 0.248592	 0.026497	 0.976464	 0.192195	 -2.247681	 
0.017000	 0.248575	 0.026653	 0.976237	 0.193179	 -2.247695	 
0.017100	 0.248558	 0.026809	 0.976010	 0.194162	 -2.247708	 
0.017200	 0.248542	 0.026965	 0.975782	 0.195143	 -2.247722	 
0.017300	 0.248525	 0.027121	 0.975553	 0.196123	 -2.247736	 
0.017400	 0.248507	 0.027277	 0.975323	 0.197102	 -2.247750	 
0.017500	 0.248490	 0.027434	 0.975092	 0.198079	 -2.247764	 
0.017600	 0.248473	 0.027590	 0.974861	 0.199055	 -2.247779	 
0.017700	 0.248456	 0.027746	 0.974629	 0.200030	 -2.247793	 
0.017800	 0.248438	 0.027902	 0.974397	 0.201003	 -2.247807	 
0.017900	 0.248421	 0.028058	 0.974163	 0.201975	 -2.247821	 
0.018000	 0.248403	 0.028214	 0.973929	 0.202946	 -2.247836	 
0.018100	 0.248385	 0.028370	 0.973694	 0.203915	 -2.247850	 
0.018200	 0.248367	 0.028526	 0.973458	 0.204883	 -2.247865	 
0.018300	 0.248349	 0.028682	 0.973222	 0.205850	 -2.247879	 
0.018400	 0.248331	 0.028838	 0.972984	 0.206816	 -2.247894	 
0.018500	 0.248313	 0.028994	 0.972746	 0.207780	 -2.247909	 
0.018600	 0.248295	 0.029150	 0.972508	 0.208743	 -2.247923	 
0.018700	 0.248276	 0.029306	 0.972268	 0.209704	 -2.247938	 
0.018800	 0.248258	 0.029462	 0.972028	 0.210665	 -2.247953	 
0.018900	 0.248239	 0.029618	 0.971787	 0.211624	 -2.247968	 
0.019000	 0.248221	 0.029774	 0.971546	 0.212581	 -2.247983	 
0.019100	 0.248202	 0.029930	 0.971303	 0.213538	 -2.247998	 
0.019200	 0.248183	 0.030086	 0.971060	 0.214493	 -2.248013	 
0.019300	 0.248164	 0.030242	 0.970817	 0.215447	 -2.248028	 
0.019400	 0.248145	 0.030398	 0.970572	 0.216399	 -2.248043	 
0.019500	 0.248126	 0.030554	 0.970327	 0.217350	 -2.248058	 
0.019600	 0.248107	 0.030710	 0.970081	 0.218300	 -2.248074	 
0.019700	 0.248087	 0.030866	 0.969835	 0.219249	 -2.248089	 
0.019800	 0.248068	 0.031022	 0.969587	 0.220196	 -2.248104	 
0.019900	 0.248048	 0.031177	 0.969340	 0.221143	 -2.248120	 
0.020000	 0.248029	 0.031333	 0.969091	 0.222087	 -2.248135	 
0.020100	 0.248009	 0.031489	 0.968842	 0.223031	 -2.248151	 
0.020200	 0.247989	 0.031645	 0.968592	 0.223973	 -2.248166	 
0.020300	 0.247969	 0.031801	 0.968341	 0.224915	 -2.248182	 
0.020400	 0.247949	 0.031957	 0.968090	 0.225854	 -2.248198	 
0.020500	 0.247929	 0.032112	 0.967838	 0.226793	 -2.248214	 
0.020600	 0.247909	 0.032268	 0.967585	 0.227730	 -2.248229	 
0.020700	 0.247888	 0.032424	 0.967332	 0.228666	 -2.248245	 
0.020800	 0.247868	 0.032580	 0.967078	 0.229601	 -2.248261	 
0.020900	 0.247848	 0.032735	 0.966823	 0.230535	 -2.248277	 
0.021000	 0.247827	 0.032891	 0.966567	 0.231467	 -2.248293	 
0.021100	 0.247806	 0.033047	 0.966311	 0.232398	 -2.248309	 
0.021200	 0.247785	 0.033202	 0.966055	 0.233328	 -2.248326	 
0.021300	 0.247764	 0.033358	 0.965797	 0.234257	 -2.248342	 
0.021400	 0.247743	 0.033514	 0.965540	 0.235184	 -2.248358	 
0.021500	 0.247722	 0.033669	 0.965281	 0.236110	 -2.248374	 
0.021600	 0.247701	 0.033825	 0.965022	 0.237035	 -2.248391	 
0.021700	 0.247680	 0.033981	 0.964762	 0.237959	 -2.248407	 
0.021800	 0.247658	 0.034136	 0.964501	 0.238881	 -2.248424	 
0.021900	 0.247637	 0.034292	 0.964240	 0.239803	 -2.248440	 
0.022000	 0.247615	 0.034448	 0.963978	 0.240723	 -2.248457	 
0.022100	 0.247594	 0.034603	 0.963716	 0.241641	 -2.248473	 
0.022200	 0.247572	 0.034759	 0.963453	 0.242559	 -2.248490	 
0.022300	 0.247550	 0.034914	 0.963189	 0.243475	 -2.248507	 
0.022400	 0.247528	 0.035070	 0.962925	 0.244391	 -2.248523	 
0.022500	 0.247506	 0.035225	 0.962660	 0.245305	 -2.248540	 
0.022600	 0.247484	 0.035381	 0.962394	 0.246217	 -2.248557	 
0.022700	 0.247461	 0.035536	 0.962128	 0.247129	 -2.248574	 
0.022800	 0.247439	 0.035692	 0.961861	 0.248039	 -2.248591	 
0.022900	 0.247417	 0.035847	 0.961594	 0.248948	 -2.248608	 
0.023000	 0.247394	 0.036003	 0.961326	 0.249856	 -2.248625	 
0.023100	 0.247371	 0.036158	 0.961057	 0.250763	 -2.248642	 
0.023200	 0.247349	 0.036314	 0.960788	 0.251669	 -2.248659	 
0.023300	 0.247326	 0.036469	 0.960518	 0.252573	 -2.248676	 
0.023400	 0.247303	 0.036624	 0.960248	 0.253476	 -2.248694	 
0.023500	 0.247280	 0.036780	 0.959977	 0.254378	 -2.248711	 
0.023600	 0.247257	 0.036935	 0.959705	 0.255279	 -2.248728	 
0.023700	 0.247233	 0.037090	 0.959433	 0.256179	 -2.248746	 
0.023800	 0.247210	 0.037246	 0.959160	 0.257077	 -2.248763	 
0.023900	 0.247186	 0.037401	 0.958887	 0.257974	 -2.248781	 
0.024000	 0.247163	 0.037556	 0.958613	 0.258871	 -2.248798	 
0.024100	 0.247139	 0.037712	 0.958339	 0.259766	 -2.248816	 
0.024200	 0.247116	 0.037867	 0.958064	 0.260659	 -2.248834	 
0.024300	 0.247092	 0.038022	 0.957788	 0.261552	 -2.248851	 
0.024400	 0.247068	 0.038177	 0.957512	 0.262443	 -2.248869	 
0.024500	 0.247044	 0.038333	 0.957235	 0.263334	 -2.248887	 
0.024600	 0.247020	 0.038488	 0.956957	 0.264223	 -2.248905	 
0.024700	 0.246995	 0.038643	 0.956680	 0.265111	 -2.248923	 
0.024800	 0.246971	 0.038798	 0.956401	 0.265998	 -2.248941	 
0.024900	 0.246947	 0.038953	 0.956122	 0.266883	 -2.248959	 
0.025000	 0.246922	 0.039109	 0.955842	 0.267768	 -2.248977	 
0.025100	 0.246897	 0.039264	 0.955562	 0.268651	 -2.248995	 
0.025200	 0.246873	 0.039419	 0.955281	 0.269533	 -2.249013	 
0.025300	 0.246848	 0.039574	 0.955000	 0.270414	 -2.249031	 
0.025400	 0.246823	 0.039729	 0.954718	 0.271294	 -2.249049	 
0.025500	 0.246798	 0.039884	 0.954436	 0.272173	 -2.249067	 
0.025600	 0.246773	 0.040039	 0.954153	 0.273051	 -2.249086	 
0.025700	 0.246748	 0.040194	 0.953869	 0.273927	 -2.249104	 
0.025800	 0.246722	 0.040349	 0.953585	 0.274802	 -2.249122	 
0.025900	 0.246697	 0.040504	 0.953301	 0.275677	 -2.249141	 
0.026000	 0.246671	 0.040659	 0.953016	 0.276550	 -2.249159	 
0.026100	 0.246646	 0.040814	 0.952730	 0.277422	 -2.249178	 
0.026200	 0.246620	 0.040969	 0.952444	 0.278293	 -2.249197	 
0.026300	 0.246594	 0.041124	 0.952157	 0.279162	 -2.249215	 
0.026400	 0.246569	 0.041279	 0.951870	 0.280031	 -2.249234	 
0.026500	 0.246543	 0.041434	 0.951582	 0.280898	 -2.249253	 
0.026600	 0.246516	 0.041589	 0.951294	 0.281765	 -2.249271	 
0.026700	 0.246490	 0.041744	 0.951005	 0.282630	 -2.249290	 
0.026800	 0.246464	 0.041899	 0.950716	 0.283494	 -2.249309	 
0.026900	 0.246438	 0.042054	 0.950426	 0.284357	 -2.249328	 
0.027000	 0.246411	 0.042208	 0.950136	 0.285219	 -2.249347	 
0.027100	 0.246385	 0.042363	 0.949845	 0.286080	 -2.249366	 
0.027200	 0.246358	 0.042518	 0.949554	 0.286940	 -2.249385	 
0.027300	 0.246331	 0.042673	 0.949262	 0.287798	 -2.249404	 
0.027400	 0.246304	 0.042828	 0.948969	 0.288656	 -2.249423	 
0.027500	 0.246277	 0.042982	 0.948676	 0.289512	 -2.249442	 
0.027600	 0.246250	 0.043137	 0.948383	 0.290368	 -2.249461	 
0.027700	 0.246223	 0.043292	 0.948089	 0.291222	 -2.249481	 
0.027800	 0.246196	 0.043446	 0.947795	 0.292075	 -2.249500	 
0.027900	 0.246169	 0.043601	 0.947500	 0.292927	 -2.249519	 
0.028000	 0.246141	 0.043756	 0.947204	 0.293778	 -2.249539	 
0.028100	 0.246114	 0.043910	 0.946909	 0.294628	 -2.249558	 
0.028200	 0.246086	 0.044065	 0.946612	 0.295477	 -2.249577	 
0.028300	 0.246058	 0.044220	 0.946315	 0.296324	 -2.249597	 
0.028400	 0.246030	 0.044374	 0.946018	 0.297171	 -2.249617	 
0.028500	 0.246002	 0.044529	 0.945720	 0.298017	 -2.249636	 
0.028600	 0.245974	 0.044683	 0.945422	 0.298861	 -2.249656	 
0.028700	 0.245946	 0.044838	 0.945123	 0.299705	 -2.249675	 
0.028800	 0.245918	 0.044992	 0.944824	 0.300547	 -2.249695	 
0.028900	 0.245890	 0.045147	 0.944524	 0.301388	 -2.249715	 
0.029000	 0.245861	 0.045301	 0.944224	 0.302228	 -2.249735	 
0.029100	 0.245833	 0.045456	 0.943923	 0.303067	 -2.249754	 
0.029200	 0.245804	 0.045610	 0.943622	 0.303906	 -2.249774	 
0.029300	 0.245775	 0.045765	 0.943320	 0.304743	 -2.249794	 
0.029400	 0.245747	 0.045919	 0.943018	 0.305579	 -2.249814	 
0.029500	 0.245718	 0.046074	 0.942715	 0.306413	 -2.249834	 
0.029600	 0.245689	 0.046228	 0.942412	 0.307247	 -2.249854	 
0.029700	 0.245660	 0.046382	 0.942109	 0.308080	 -2.249874	 
0.029800	 0.245630	 0.046537	 0.941805	 0.308912	 -2.249894	 
0.029900	 0.245601	 0.046691	 0.941500	 0.309742	 -2.249915	 
0.030000	 0.245572	 0.046845	 0.941196	 0.310572	 -2.249935	 
0.030100	 0.245542	 0.047000	 0.940890	 0.311401	 -2.249955	 
0.030200	 0.245513	 0.047154	 0.940584	 0.312228	 -2.249975	 
0.030300	 0.245483	 0.047308	 0.940278	 0.313055	 -2.249996	 
0.030400	 0.245453	 0.047462	 0.939971	 0.313880	 -2.250016	 
0.030500	 0.245423	 0.047617	 0.939664	 0.314705	 -2.250036	 
0.030600	 0.245393	 0.047771	 0.939357	 0.315528	 -2.250057	 
0.030700	 0.245363	 0.047925	 0.939048	 0.316350	 -2.250077	 
0.030800	 0.245333	 0.048079	 0.938740	 0.317172	 -2.250098	 
0.030900	 0.245303	 0.048233	 0.938431	 0.317992	 -2.250118	 
0.031000	 0.245273	 0.048387	 0.938122	 0.318811	 -2.250139	 
0.031100	 0.245242	 0.048541	 0.937812	 0.319630	 -2.250160	 
0.031200	 0.245212	 0.048696	 0.937502	 0.320447	 -2.250180	 
0.031300	 0.245181	 0.048850	 0.937191	 0.321263	 -2.250201	 
0.031400	 0.245150	 0.049004	 0.936880	 0.322078	 -2.250222	 
0.031500	 0.245119	 0.049158	 0.936568	 0.322893	 -2.250242	 
