
theta(h[:])	 h[0]	 h[1]	 <m[0]>	 <m[1]>	 <E>	 dim_{Lat}=2	 L=128,128	 J=1.000000,1.000000	 {/Symbol s}_J=0.000000,0.000000	 <J_{ij}>=0.000000,0.000000	 dim_(Spin}=2	 h=-,0.000000	 {/Symbol s}_h=0.500000,0.000000	 <h_i>=-0.001954,0.000000	 order=1.000000,0.000000	 order_h=0	 order_r=1	 MCS/{/Symbol d}h=1/0.000100	 

Updating all (first)black/(then)white checkerboard sites simultaneously.. 
0.000000	 0.250000	 0.000000	 1.000000	 -0.000000	 -2.248046	 
0.000100	 0.250000	 0.000157	 0.999999	 0.001237	 -2.248046	 
0.000200	 0.250000	 0.000314	 0.999996	 0.002474	 -2.248046	 
0.000300	 0.250000	 0.000471	 0.999990	 0.003711	 -2.248046	 
0.000400	 0.249999	 0.000628	 0.999983	 0.004948	 -2.248046	 
0.000500	 0.249999	 0.000785	 0.999973	 0.006184	 -2.248047	 
0.000600	 0.249998	 0.000942	 0.999961	 0.007420	 -2.248047	 
0.000700	 0.249998	 0.001100	 0.999947	 0.008655	 -2.248048	 
0.000800	 0.249997	 0.001257	 0.999931	 0.009890	 -2.248049	 
0.000900	 0.249996	 0.001414	 0.999913	 0.011124	 -2.248049	 
0.001000	 0.249995	 0.001571	 0.999892	 0.012358	 -2.248050	 
0.001100	 0.249994	 0.001728	 0.999870	 0.013591	 -2.248051	 
0.001200	 0.249993	 0.001885	 0.999845	 0.014822	 -2.248052	 
0.001300	 0.249992	 0.002042	 0.999819	 0.016053	 -2.248054	 
0.001400	 0.249990	 0.002199	 0.999790	 0.017283	 -2.248055	 
0.001500	 0.249989	 0.002356	 0.999759	 0.018512	 -2.248056	 
0.001600	 0.249987	 0.002513	 0.999726	 0.019740	 -2.248058	 
0.001700	 0.249986	 0.002670	 0.999691	 0.020966	 -2.248059	 
0.001800	 0.249984	 0.002827	 0.999655	 0.022192	 -2.248061	 
0.001900	 0.249982	 0.002984	 0.999616	 0.023416	 -2.248063	 
0.002000	 0.249980	 0.003142	 0.999575	 0.024638	 -2.248065	 
0.002100	 0.249978	 0.003299	 0.999532	 0.025860	 -2.248067	 
0.002200	 0.249976	 0.003456	 0.999487	 0.027080	 -2.248069	 
0.002300	 0.249974	 0.003613	 0.999440	 0.028299	 -2.248071	 
0.002400	 0.249972	 0.003770	 0.999392	 0.029516	 -2.248073	 
0.002500	 0.249969	 0.003927	 0.999341	 0.030731	 -2.248075	 
0.002600	 0.249967	 0.004084	 0.999289	 0.031946	 -2.248078	 
0.002700	 0.249964	 0.004241	 0.999234	 0.033158	 -2.248080	 
0.002800	 0.249961	 0.004398	 0.999178	 0.034369	 -2.248083	 
0.002900	 0.249958	 0.004555	 0.999120	 0.035579	 -2.248085	 
0.003000	 0.249956	 0.004712	 0.999060	 0.036786	 -2.248088	 
0.003100	 0.249953	 0.004869	 0.998998	 0.037992	 -2.248091	 
0.003200	 0.249949	 0.005026	 0.998935	 0.039197	 -2.248094	 
0.003300	 0.249946	 0.005183	 0.998869	 0.040400	 -2.248097	 
0.003400	 0.249943	 0.005340	 0.998802	 0.041601	 -2.248100	 
0.003500	 0.249940	 0.005497	 0.998734	 0.042800	 -2.248103	 
0.003600	 0.249936	 0.005654	 0.998663	 0.043998	 -2.248107	 
0.003700	 0.249932	 0.005811	 0.998591	 0.045193	 -2.248110	 
0.003800	 0.249929	 0.005968	 0.998517	 0.046388	 -2.248114	 
0.003900	 0.249925	 0.006125	 0.998441	 0.047580	 -2.248117	 
0.004000	 0.249921	 0.006283	 0.998364	 0.048770	 -2.248121	 
0.004100	 0.249917	 0.006440	 0.998284	 0.049959	 -2.248125	 
0.004200	 0.249913	 0.006597	 0.998204	 0.051146	 -2.248129	 
0.004300	 0.249909	 0.006754	 0.998121	 0.052331	 -2.248133	 
0.004400	 0.249904	 0.006911	 0.998037	 0.053515	 -2.248137	 
0.004500	 0.249900	 0.007068	 0.997952	 0.054696	 -2.248141	 
0.004600	 0.249896	 0.007225	 0.997865	 0.055876	 -2.248145	 
0.004700	 0.249891	 0.007382	 0.997776	 0.057054	 -2.248149	 
0.004800	 0.249886	 0.007539	 0.997685	 0.058230	 -2.248154	 
0.004900	 0.249882	 0.007696	 0.997593	 0.059404	 -2.248158	 
0.005000	 0.249877	 0.007853	 0.997500	 0.060577	 -2.248163	 
0.005100	 0.249872	 0.008010	 0.997405	 0.061747	 -2.248167	 
0.005200	 0.249867	 0.008167	 0.997308	 0.062916	 -2.248172	 
0.005300	 0.249861	 0.008324	 0.997210	 0.064083	 -2.248177	 
0.005400	 0.249856	 0.008481	 0.997111	 0.065248	 -2.248182	 
0.005500	 0.249851	 0.008638	 0.997010	 0.066412	 -2.248187	 
0.005600	 0.249845	 0.008795	 0.996907	 0.067573	 -2.248192	 
0.005700	 0.249840	 0.008952	 0.996803	 0.068733	 -2.248197	 
0.005800	 0.249834	 0.009109	 0.996697	 0.069891	 -2.248202	 
0.005900	 0.249828	 0.009266	 0.996591	 0.071047	 -2.248207	 
0.006000	 0.249822	 0.009423	 0.996482	 0.072201	 -2.248213	 
0.006100	 0.249816	 0.009580	 0.996372	 0.073353	 -2.248218	 
0.006200	 0.249810	 0.009736	 0.996261	 0.074504	 -2.248224	 
0.006300	 0.249804	 0.009893	 0.996149	 0.075653	 -2.248229	 
0.006400	 0.249798	 0.010050	 0.996035	 0.076799	 -2.248235	 
0.006500	 0.249792	 0.010207	 0.995919	 0.077945	 -2.248241	 
0.006600	 0.249785	 0.010364	 0.995802	 0.079088	 -2.248247	 
0.006700	 0.249779	 0.010521	 0.995684	 0.080230	 -2.248253	 
0.006800	 0.249772	 0.010678	 0.995565	 0.081369	 -2.248259	 
0.006900	 0.249765	 0.010835	 0.995444	 0.082507	 -2.248265	 
0.007000	 0.249758	 0.010992	 0.995322	 0.083643	 -2.248271	 
0.007100	 0.249751	 0.011149	 0.995198	 0.084778	 -2.248277	 
0.007200	 0.249744	 0.011306	 0.995073	 0.085910	 -2.248284	 
0.007300	 0.249737	 0.011463	 0.994947	 0.087041	 -2.248290	 
0.007400	 0.249730	 0.011620	 0.994820	 0.088170	 -2.248297	 
0.007500	 0.249722	 0.011777	 0.994691	 0.089298	 -2.248303	 
0.007600	 0.249715	 0.011934	 0.994561	 0.090423	 -2.248310	 
0.007700	 0.249707	 0.012090	 0.994430	 0.091547	 -2.248317	 
0.007800	 0.249700	 0.012247	 0.994297	 0.092669	 -2.248324	 
0.007900	 0.249692	 0.012404	 0.994163	 0.093789	 -2.248331	 
0.008000	 0.249684	 0.012561	 0.994028	 0.094908	 -2.248338	 
0.008100	 0.249676	 0.012718	 0.993892	 0.096025	 -2.248345	 
0.008200	 0.249668	 0.012875	 0.993755	 0.097140	 -2.248352	 
0.008300	 0.249660	 0.013032	 0.993616	 0.098253	 -2.248359	 
0.008400	 0.249652	 0.013189	 0.993476	 0.099364	 -2.248366	 
0.008500	 0.249644	 0.013345	 0.993335	 0.100474	 -2.248374	 
0.008600	 0.249635	 0.013502	 0.993192	 0.101583	 -2.248381	 
0.008700	 0.249627	 0.013659	 0.993049	 0.102689	 -2.248389	 
0.008800	 0.249618	 0.013816	 0.992904	 0.103794	 -2.248396	 
0.008900	 0.249609	 0.013973	 0.992758	 0.104897	 -2.248404	 
0.009000	 0.249600	 0.014130	 0.992611	 0.105998	 -2.248412	 
0.009100	 0.249591	 0.014286	 0.992462	 0.107098	 -2.248420	 
0.009200	 0.249582	 0.014443	 0.992313	 0.108196	 -2.248428	 
0.009300	 0.249573	 0.014600	 0.992162	 0.109292	 -2.248436	 
0.009400	 0.249564	 0.014757	 0.992011	 0.110387	 -2.248444	 
0.009500	 0.249555	 0.014914	 0.991858	 0.111480	 -2.248452	 
0.009600	 0.249545	 0.015071	 0.991704	 0.112571	 -2.248460	 
0.009700	 0.249536	 0.015227	 0.991549	 0.113660	 -2.248468	 
0.009800	 0.249526	 0.015384	 0.991392	 0.114748	 -2.248477	 
0.009900	 0.249516	 0.015541	 0.991235	 0.115835	 -2.248485	 
0.010000	 0.249507	 0.015698	 0.991076	 0.116919	 -2.248494	 
0.010100	 0.249497	 0.015854	 0.990917	 0.118002	 -2.248502	 
0.010200	 0.249487	 0.016011	 0.990756	 0.119084	 -2.248511	 
0.010300	 0.249477	 0.016168	 0.990594	 0.120163	 -2.248520	 
0.010400	 0.249466	 0.016325	 0.990431	 0.121242	 -2.248529	 
0.010500	 0.249456	 0.016481	 0.990267	 0.122318	 -2.248537	 
0.010600	 0.249446	 0.016638	 0.990102	 0.123393	 -2.248546	 
0.010700	 0.249435	 0.016795	 0.989936	 0.124466	 -2.248555	 
0.010800	 0.249425	 0.016952	 0.989769	 0.125538	 -2.248565	 
0.010900	 0.249414	 0.017108	 0.989601	 0.126608	 -2.248574	 
0.011000	 0.249403	 0.017265	 0.989432	 0.127676	 -2.248583	 
0.011100	 0.249392	 0.017422	 0.989262	 0.128743	 -2.248592	 
0.011200	 0.249381	 0.017578	 0.989090	 0.129809	 -2.248602	 
0.011300	 0.249370	 0.017735	 0.988918	 0.130872	 -2.248611	 
0.011400	 0.249359	 0.017892	 0.988745	 0.131934	 -2.248621	 
0.011500	 0.249348	 0.018048	 0.988570	 0.132995	 -2.248630	 
0.011600	 0.249336	 0.018205	 0.988395	 0.134054	 -2.248640	 
0.011700	 0.249325	 0.018362	 0.988218	 0.135111	 -2.248650	 
0.011800	 0.249313	 0.018518	 0.988041	 0.136167	 -2.248659	 
0.011900	 0.249302	 0.018675	 0.987863	 0.137221	 -2.248669	 
0.012000	 0.249290	 0.018832	 0.987683	 0.138274	 -2.248679	 
0.012100	 0.249278	 0.018988	 0.987503	 0.139325	 -2.248689	 
0.012200	 0.249266	 0.019145	 0.987322	 0.140375	 -2.248699	 
0.012300	 0.249254	 0.019302	 0.987139	 0.141423	 -2.248709	 
0.012400	 0.249242	 0.019458	 0.986956	 0.142470	 -2.248720	 
0.012500	 0.249229	 0.019615	 0.986772	 0.143515	 -2.248730	 
0.012600	 0.249217	 0.019771	 0.986587	 0.144558	 -2.248740	 
0.012700	 0.249204	 0.019928	 0.986400	 0.145600	 -2.248751	 
0.012800	 0.249192	 0.020085	 0.986213	 0.146641	 -2.248761	 
0.012900	 0.249179	 0.020241	 0.986025	 0.147679	 -2.248772	 
0.013000	 0.249166	 0.020398	 0.985836	 0.148717	 -2.248782	 
0.013100	 0.249154	 0.020554	 0.985646	 0.149753	 -2.248793	 
0.013200	 0.249141	 0.020711	 0.985455	 0.150787	 -2.248804	 
0.013300	 0.249128	 0.020867	 0.985264	 0.151820	 -2.248815	 
0.013400	 0.249114	 0.021024	 0.985071	 0.152852	 -2.248825	 
0.013500	 0.249101	 0.021180	 0.984877	 0.153882	 -2.248836	 
0.013600	 0.249088	 0.021337	 0.984683	 0.154910	 -2.248847	 
0.013700	 0.249074	 0.021493	 0.984487	 0.155937	 -2.248858	 
0.013800	 0.249061	 0.021650	 0.984291	 0.156963	 -2.248870	 
0.013900	 0.249047	 0.021806	 0.984093	 0.157987	 -2.248881	 
0.014000	 0.249033	 0.021963	 0.983895	 0.159009	 -2.248892	 
0.014100	 0.249020	 0.022119	 0.983696	 0.160030	 -2.248903	 
0.014200	 0.249006	 0.022276	 0.983496	 0.161050	 -2.248915	 
0.014300	 0.248992	 0.022432	 0.983295	 0.162068	 -2.248926	 
0.014400	 0.248977	 0.022589	 0.983094	 0.163085	 -2.248938	 
0.014500	 0.248963	 0.022745	 0.982891	 0.164100	 -2.248949	 
0.014600	 0.248949	 0.022901	 0.982688	 0.165114	 -2.248961	 
0.014700	 0.248934	 0.023058	 0.982483	 0.166127	 -2.248973	 
0.014800	 0.248920	 0.023214	 0.982278	 0.167138	 -2.248985	 
0.014900	 0.248905	 0.023371	 0.982072	 0.168147	 -2.248996	 
0.015000	 0.248890	 0.023527	 0.981865	 0.169155	 -2.249008	 
0.015100	 0.248876	 0.023683	 0.981658	 0.170162	 -2.249020	 
0.015200	 0.248861	 0.023840	 0.981449	 0.171167	 -2.249032	 
0.015300	 0.248846	 0.023996	 0.981239	 0.172171	 -2.249044	 
0.015400	 0.248831	 0.024153	 0.981029	 0.173174	 -2.249057	 
0.015500	 0.248815	 0.024309	 0.980818	 0.174175	 -2.249069	 
0.015600	 0.248800	 0.024465	 0.980606	 0.175174	 -2.249081	 
0.015700	 0.248785	 0.024622	 0.980393	 0.176173	 -2.249093	 
0.015800	 0.248769	 0.024778	 0.980180	 0.177170	 -2.249106	 
0.015900	 0.248753	 0.024934	 0.979965	 0.178165	 -2.249118	 
0.016000	 0.248738	 0.025090	 0.979750	 0.179159	 -2.249131	 
0.016100	 0.248722	 0.025247	 0.979534	 0.180152	 -2.249143	 
0.016200	 0.248706	 0.025403	 0.979317	 0.181143	 -2.249156	 
0.016300	 0.248690	 0.025559	 0.979100	 0.182133	 -2.249169	 
0.016400	 0.248674	 0.025715	 0.978881	 0.183121	 -2.249181	 
0.016500	 0.248658	 0.025872	 0.978662	 0.184109	 -2.249194	 
0.016600	 0.248641	 0.026028	 0.978442	 0.185094	 -2.249207	 
0.016700	 0.248625	 0.026184	 0.978221	 0.186079	 -2.249220	 
0.016800	 0.248608	 0.026340	 0.978000	 0.187062	 -2.249233	 
0.016900	 0.248592	 0.026497	 0.977777	 0.188044	 -2.249246	 
0.017000	 0.248575	 0.026653	 0.977554	 0.189024	 -2.249259	 
0.017100	 0.248558	 0.026809	 0.977330	 0.190003	 -2.249272	 
0.017200	 0.248542	 0.026965	 0.977106	 0.190980	 -2.249286	 
0.017300	 0.248525	 0.027121	 0.976880	 0.191957	 -2.249299	 
0.017400	 0.248507	 0.027277	 0.976654	 0.192932	 -2.249312	 
0.017500	 0.248490	 0.027434	 0.976427	 0.193905	 -2.249326	 
0.017600	 0.248473	 0.027590	 0.976199	 0.194878	 -2.249339	 
0.017700	 0.248456	 0.027746	 0.975971	 0.195849	 -2.249353	 
0.017800	 0.248438	 0.027902	 0.975741	 0.196818	 -2.249366	 
0.017900	 0.248421	 0.028058	 0.975511	 0.197786	 -2.249380	 
0.018000	 0.248403	 0.028214	 0.975281	 0.198753	 -2.249394	 
0.018100	 0.248385	 0.028370	 0.975049	 0.199719	 -2.249407	 
0.018200	 0.248367	 0.028526	 0.974817	 0.200683	 -2.249421	 
0.018300	 0.248349	 0.028682	 0.974584	 0.201646	 -2.249435	 
0.018400	 0.248331	 0.028838	 0.974350	 0.202608	 -2.249449	 
0.018500	 0.248313	 0.028994	 0.974116	 0.203568	 -2.249463	 
0.018600	 0.248295	 0.029150	 0.973881	 0.204527	 -2.249477	 
0.018700	 0.248276	 0.029306	 0.973645	 0.205485	 -2.249491	 
0.018800	 0.248258	 0.029462	 0.973408	 0.206442	 -2.249505	 
0.018900	 0.248239	 0.029618	 0.973171	 0.207397	 -2.249520	 
0.019000	 0.248221	 0.029774	 0.972933	 0.208351	 -2.249534	 
0.019100	 0.248202	 0.029930	 0.972694	 0.209303	 -2.249548	 
0.019200	 0.248183	 0.030086	 0.972455	 0.210255	 -2.249563	 
0.019300	 0.248164	 0.030242	 0.972215	 0.211205	 -2.249577	 
0.019400	 0.248145	 0.030398	 0.971974	 0.212153	 -2.249591	 
0.019500	 0.248126	 0.030554	 0.971732	 0.213101	 -2.249606	 
0.019600	 0.248107	 0.030710	 0.971490	 0.214047	 -2.249621	 
0.019700	 0.248087	 0.030866	 0.971247	 0.214992	 -2.249635	 
0.019800	 0.248068	 0.031022	 0.971003	 0.215936	 -2.249650	 
0.019900	 0.248048	 0.031177	 0.970759	 0.216878	 -2.249665	 
0.020000	 0.248029	 0.031333	 0.970514	 0.217819	 -2.249680	 
0.020100	 0.248009	 0.031489	 0.970269	 0.218759	 -2.249694	 
0.020200	 0.247989	 0.031645	 0.970022	 0.219697	 -2.249709	 
0.020300	 0.247969	 0.031801	 0.969775	 0.220635	 -2.249724	 
0.020400	 0.247949	 0.031957	 0.969528	 0.221571	 -2.249739	 
0.020500	 0.247929	 0.032112	 0.969279	 0.222506	 -2.249754	 
0.020600	 0.247909	 0.032268	 0.969030	 0.223439	 -2.249770	 
0.020700	 0.247888	 0.032424	 0.968780	 0.224372	 -2.249785	 
0.020800	 0.247868	 0.032580	 0.968530	 0.225303	 -2.249800	 
0.020900	 0.247848	 0.032735	 0.968279	 0.226233	 -2.249815	 
0.021000	 0.247827	 0.032891	 0.968028	 0.227161	 -2.249831	 
0.021100	 0.247806	 0.033047	 0.967775	 0.228089	 -2.249846	 
0.021200	 0.247785	 0.033202	 0.967522	 0.229015	 -2.249861	 
0.021300	 0.247764	 0.033358	 0.967269	 0.229940	 -2.249877	 
0.021400	 0.247743	 0.033514	 0.967014	 0.230864	 -2.249892	 
0.021500	 0.247722	 0.033669	 0.966760	 0.231786	 -2.249908	 
0.021600	 0.247701	 0.033825	 0.966504	 0.232707	 -2.249924	 
0.021700	 0.247680	 0.033981	 0.966248	 0.233627	 -2.249939	 
0.021800	 0.247658	 0.034136	 0.965991	 0.234546	 -2.249955	 
0.021900	 0.247637	 0.034292	 0.965734	 0.235464	 -2.249971	 
0.022000	 0.247615	 0.034448	 0.965476	 0.236380	 -2.249987	 
0.022100	 0.247594	 0.034603	 0.965217	 0.237296	 -2.250003	 
0.022200	 0.247572	 0.034759	 0.964958	 0.238210	 -2.250019	 
0.022300	 0.247550	 0.034914	 0.964698	 0.239122	 -2.250035	 
0.022400	 0.247528	 0.035070	 0.964437	 0.240034	 -2.250051	 
0.022500	 0.247506	 0.035225	 0.964176	 0.240944	 -2.250067	 
0.022600	 0.247484	 0.035381	 0.963914	 0.241854	 -2.250083	 
0.022700	 0.247461	 0.035536	 0.963652	 0.242762	 -2.250099	 
0.022800	 0.247439	 0.035692	 0.963389	 0.243669	 -2.250115	 
0.022900	 0.247417	 0.035847	 0.963125	 0.244574	 -2.250132	 
0.023000	 0.247394	 0.036003	 0.962861	 0.245479	 -2.250148	 
0.023100	 0.247371	 0.036158	 0.962597	 0.246382	 -2.250165	 
0.023200	 0.247349	 0.036314	 0.962331	 0.247284	 -2.250181	 
0.023300	 0.247326	 0.036469	 0.962065	 0.248185	 -2.250197	 
0.023400	 0.247303	 0.036624	 0.961799	 0.249085	 -2.250214	 
0.023500	 0.247280	 0.036780	 0.961531	 0.249984	 -2.250231	 
0.023600	 0.247257	 0.036935	 0.961264	 0.250881	 -2.250247	 
0.023700	 0.247233	 0.037090	 0.960995	 0.251777	 -2.250264	 
0.023800	 0.247210	 0.037246	 0.960726	 0.252672	 -2.250281	 
0.023900	 0.247186	 0.037401	 0.960457	 0.253566	 -2.250297	 
0.024000	 0.247163	 0.037556	 0.960187	 0.254459	 -2.250314	 
0.024100	 0.247139	 0.037712	 0.959916	 0.255351	 -2.250331	 
0.024200	 0.247116	 0.037867	 0.959645	 0.256241	 -2.250348	 
0.024300	 0.247092	 0.038022	 0.959373	 0.257131	 -2.250365	 
0.024400	 0.247068	 0.038177	 0.959101	 0.258019	 -2.250382	 
0.024500	 0.247044	 0.038333	 0.958828	 0.258906	 -2.250399	 
0.024600	 0.247020	 0.038488	 0.958554	 0.259792	 -2.250416	 
0.024700	 0.246995	 0.038643	 0.958280	 0.260677	 -2.250433	 
0.024800	 0.246971	 0.038798	 0.958006	 0.261560	 -2.250451	 
0.024900	 0.246947	 0.038953	 0.957731	 0.262443	 -2.250468	 
0.025000	 0.246922	 0.039109	 0.957455	 0.263324	 -2.250485	 
0.025100	 0.246897	 0.039264	 0.957179	 0.264204	 -2.250503	 
0.025200	 0.246873	 0.039419	 0.956902	 0.265083	 -2.250520	 
0.025300	 0.246848	 0.039574	 0.956624	 0.265961	 -2.250537	 
0.025400	 0.246823	 0.039729	 0.956346	 0.266838	 -2.250555	 
0.025500	 0.246798	 0.039884	 0.956068	 0.267714	 -2.250572	 
0.025600	 0.246773	 0.040039	 0.955789	 0.268589	 -2.250590	 
0.025700	 0.246748	 0.040194	 0.955509	 0.269462	 -2.250608	 
0.025800	 0.246722	 0.040349	 0.955229	 0.270334	 -2.250625	 
0.025900	 0.246697	 0.040504	 0.954949	 0.271206	 -2.250643	 
0.026000	 0.246671	 0.040659	 0.954667	 0.272076	 -2.250661	 
0.026100	 0.246646	 0.040814	 0.954386	 0.272945	 -2.250679	 
0.026200	 0.246620	 0.040969	 0.954103	 0.273813	 -2.250696	 
0.026300	 0.246594	 0.041124	 0.953821	 0.274680	 -2.250714	 
0.026400	 0.246569	 0.041279	 0.953537	 0.275545	 -2.250732	 
0.026500	 0.246543	 0.041434	 0.953253	 0.276410	 -2.250750	 
0.026600	 0.246516	 0.041589	 0.952969	 0.277273	 -2.250768	 
0.026700	 0.246490	 0.041744	 0.952684	 0.278136	 -2.250786	 
0.026800	 0.246464	 0.041899	 0.952399	 0.278997	 -2.250804	 
0.026900	 0.246438	 0.042054	 0.952113	 0.279858	 -2.250823	 
0.027000	 0.246411	 0.042208	 0.951827	 0.280717	 -2.250841	 
0.027100	 0.246385	 0.042363	 0.951540	 0.281575	 -2.250859	 
0.027200	 0.246358	 0.042518	 0.951252	 0.282432	 -2.250877	 
0.027300	 0.246331	 0.042673	 0.950964	 0.283288	 -2.250896	 
0.027400	 0.246304	 0.042828	 0.950676	 0.284142	 -2.250914	 
0.027500	 0.246277	 0.042982	 0.950387	 0.284996	 -2.250932	 
0.027600	 0.246250	 0.043137	 0.950097	 0.285849	 -2.250951	 
0.027700	 0.246223	 0.043292	 0.949807	 0.286700	 -2.250969	 
0.027800	 0.246196	 0.043446	 0.949517	 0.287551	 -2.250988	 
0.027900	 0.246169	 0.043601	 0.949226	 0.288400	 -2.251007	 
0.028000	 0.246141	 0.043756	 0.948935	 0.289249	 -2.251025	 
0.028100	 0.246114	 0.043910	 0.948643	 0.290096	 -2.251044	 
0.028200	 0.246086	 0.044065	 0.948350	 0.290942	 -2.251063	 
0.028300	 0.246058	 0.044220	 0.948057	 0.291788	 -2.251081	 
0.028400	 0.246030	 0.044374	 0.947764	 0.292632	 -2.251100	 
0.028500	 0.246002	 0.044529	 0.947470	 0.293475	 -2.251119	 
0.028600	 0.245974	 0.044683	 0.947175	 0.294317	 -2.251138	 
0.028700	 0.245946	 0.044838	 0.946881	 0.295158	 -2.251157	 
0.028800	 0.245918	 0.044992	 0.946585	 0.295998	 -2.251176	 
0.028900	 0.245890	 0.045147	 0.946289	 0.296837	 -2.251195	 
0.029000	 0.245861	 0.045301	 0.945993	 0.297675	 -2.251214	 
0.029100	 0.245833	 0.045456	 0.945696	 0.298511	 -2.251233	 
0.029200	 0.245804	 0.045610	 0.945399	 0.299347	 -2.251252	 
0.029300	 0.245775	 0.045765	 0.945101	 0.300182	 -2.251271	 
0.029400	 0.245747	 0.045919	 0.944803	 0.301015	 -2.251290	 
0.029500	 0.245718	 0.046074	 0.944504	 0.301848	 -2.251309	 
0.029600	 0.245689	 0.046228	 0.944205	 0.302680	 -2.251329	 
0.029700	 0.245660	 0.046382	 0.943906	 0.303510	 -2.251348	 
0.029800	 0.245630	 0.046537	 0.943606	 0.304340	 -2.251367	 
0.029900	 0.245601	 0.046691	 0.943305	 0.305168	 -2.251387	 
0.030000	 0.245572	 0.046845	 0.943004	 0.305996	 -2.251406	 
0.030100	 0.245542	 0.047000	 0.942703	 0.306822	 -2.251426	 
0.030200	 0.245513	 0.047154	 0.942401	 0.307648	 -2.251445	 
0.030300	 0.245483	 0.047308	 0.942099	 0.308472	 -2.251465	 
0.030400	 0.245453	 0.047462	 0.941796	 0.309295	 -2.251484	 
0.030500	 0.245423	 0.047617	 0.941492	 0.310118	 -2.251504	 
0.030600	 0.245393	 0.047771	 0.941189	 0.310939	 -2.251524	 
0.030700	 0.245363	 0.047925	 0.940885	 0.311759	 -2.251543	 
0.030800	 0.245333	 0.048079	 0.940580	 0.312579	 -2.251563	 
0.030900	 0.245303	 0.048233	 0.940275	 0.313397	 -2.251583	 
0.031000	 0.245273	 0.048387	 0.939970	 0.314214	 -2.251603	 
0.031100	 0.245242	 0.048541	 0.939664	 0.315031	 -2.251623	 
0.031200	 0.245212	 0.048696	 0.939357	 0.315846	 -2.251643	 
0.031300	 0.245181	 0.048850	 0.939050	 0.316660	 -2.251662	 
0.031400	 0.245150	 0.049004	 0.938743	 0.317474	 -2.251682	 
0.031500	 0.245119	 0.049158	 0.938436	 0.318286	 -2.251702	 
