
theta(h[:])	 h[0]	 h[1]	 <m[0]>	 <m[1]>	 <E>	 dim_{Lat}=2	 L=128,128	 J=1.000000,1.000000	 {/Symbol s}_J=0.000000,0.000000	 <J_{ij}>=0.000000,0.000000	 dim_(Spin}=2	 h=-,0.000000	 {/Symbol s}_h=0.500000,0.000000	 <h_i>=0.003284,0.000000	 order=1.000000,0.000000	 order_h=0	 order_r=1	 MCS/{/Symbol d}h=1/0.000100	 

Updating all (first)black/(then)white checkerboard sites simultaneously.. 
0.000000	 0.250000	 0.000000	 0.998521	 0.005461	 -2.253348	 
0.000100	 0.250000	 0.000157	 0.998509	 0.006669	 -2.253349	 
0.000200	 0.250000	 0.000314	 0.998495	 0.007877	 -2.253350	 
0.000300	 0.250000	 0.000471	 0.998479	 0.009084	 -2.253351	 
0.000400	 0.249999	 0.000628	 0.998461	 0.010291	 -2.253352	 
0.000500	 0.249999	 0.000785	 0.998441	 0.011497	 -2.253353	 
0.000600	 0.249998	 0.000942	 0.998419	 0.012703	 -2.253354	 
0.000700	 0.249998	 0.001100	 0.998395	 0.013908	 -2.253356	 
0.000800	 0.249997	 0.001257	 0.998368	 0.015111	 -2.253357	 
0.000900	 0.249996	 0.001414	 0.998340	 0.016314	 -2.253359	 
0.001000	 0.249995	 0.001571	 0.998310	 0.017516	 -2.253361	 
0.001100	 0.249994	 0.001728	 0.998278	 0.018716	 -2.253363	 
0.001200	 0.249993	 0.001885	 0.998244	 0.019915	 -2.253365	 
0.001300	 0.249992	 0.002042	 0.998208	 0.021113	 -2.253367	 
0.001400	 0.249990	 0.002199	 0.998170	 0.022310	 -2.253369	 
0.001500	 0.249989	 0.002356	 0.998130	 0.023505	 -2.253371	 
0.001600	 0.249987	 0.002513	 0.998089	 0.024698	 -2.253373	 
0.001700	 0.249986	 0.002670	 0.998045	 0.025890	 -2.253375	 
0.001800	 0.249984	 0.002827	 0.998000	 0.027081	 -2.253378	 
0.001900	 0.249982	 0.002984	 0.997953	 0.028269	 -2.253380	 
0.002000	 0.249980	 0.003142	 0.997904	 0.029457	 -2.253383	 
0.002100	 0.249978	 0.003299	 0.997853	 0.030642	 -2.253386	 
0.002200	 0.249976	 0.003456	 0.997801	 0.031826	 -2.253388	 
0.002300	 0.249974	 0.003613	 0.997747	 0.033008	 -2.253391	 
0.002400	 0.249972	 0.003770	 0.997691	 0.034189	 -2.253394	 
0.002500	 0.249969	 0.003927	 0.997633	 0.035367	 -2.253397	 
0.002600	 0.249967	 0.004084	 0.997574	 0.036544	 -2.253400	 
0.002700	 0.249964	 0.004241	 0.997513	 0.037720	 -2.253404	 
0.002800	 0.249961	 0.004398	 0.997450	 0.038893	 -2.253407	 
0.002900	 0.249958	 0.004555	 0.997386	 0.040065	 -2.253410	 
0.003000	 0.249956	 0.004712	 0.997320	 0.041235	 -2.253414	 
0.003100	 0.249953	 0.004869	 0.997252	 0.042404	 -2.253417	 
0.003200	 0.249949	 0.005026	 0.997183	 0.043570	 -2.253421	 
0.003300	 0.249946	 0.005183	 0.997112	 0.044735	 -2.253425	 
0.003400	 0.249943	 0.005340	 0.997040	 0.045898	 -2.253429	 
0.003500	 0.249940	 0.005497	 0.996966	 0.047059	 -2.253433	 
0.003600	 0.249936	 0.005654	 0.996891	 0.048219	 -2.253437	 
0.003700	 0.249932	 0.005811	 0.996814	 0.049377	 -2.253441	 
0.003800	 0.249929	 0.005968	 0.996735	 0.050533	 -2.253445	 
0.003900	 0.249925	 0.006125	 0.996655	 0.051687	 -2.253449	 
0.004000	 0.249921	 0.006283	 0.996574	 0.052840	 -2.253453	 
0.004100	 0.249917	 0.006440	 0.996491	 0.053991	 -2.253458	 
0.004200	 0.249913	 0.006597	 0.996407	 0.055140	 -2.253462	 
0.004300	 0.249909	 0.006754	 0.996321	 0.056287	 -2.253467	 
0.004400	 0.249904	 0.006911	 0.996233	 0.057433	 -2.253471	 
0.004500	 0.249900	 0.007068	 0.996144	 0.058577	 -2.253476	 
0.004600	 0.249896	 0.007225	 0.996054	 0.059719	 -2.253481	 
0.004700	 0.249891	 0.007382	 0.995962	 0.060859	 -2.253486	 
0.004800	 0.249886	 0.007539	 0.995869	 0.061998	 -2.253491	 
0.004900	 0.249882	 0.007696	 0.995775	 0.063135	 -2.253496	 
0.005000	 0.249877	 0.007853	 0.995679	 0.064271	 -2.253501	 
0.005100	 0.249872	 0.008010	 0.995581	 0.065404	 -2.253506	 
0.005200	 0.249867	 0.008167	 0.995483	 0.066536	 -2.253512	 
0.005300	 0.249861	 0.008324	 0.995383	 0.067666	 -2.253517	 
0.005400	 0.249856	 0.008481	 0.995281	 0.068795	 -2.253522	 
0.005500	 0.249851	 0.008638	 0.995178	 0.069922	 -2.253528	 
0.005600	 0.249845	 0.008795	 0.995074	 0.071047	 -2.253534	 
0.005700	 0.249840	 0.008952	 0.994969	 0.072170	 -2.253539	 
0.005800	 0.249834	 0.009109	 0.994862	 0.073292	 -2.253545	 
0.005900	 0.249828	 0.009266	 0.994754	 0.074412	 -2.253551	 
0.006000	 0.249822	 0.009423	 0.994644	 0.075531	 -2.253557	 
0.006100	 0.249816	 0.009580	 0.994533	 0.076648	 -2.253563	 
0.006200	 0.249810	 0.009736	 0.994421	 0.077763	 -2.253569	 
0.006300	 0.249804	 0.009893	 0.994308	 0.078876	 -2.253575	 
0.006400	 0.249798	 0.010050	 0.994193	 0.079988	 -2.253581	 
0.006500	 0.249792	 0.010207	 0.994077	 0.081098	 -2.253588	 
0.006600	 0.249785	 0.010364	 0.993960	 0.082207	 -2.253594	 
0.006700	 0.249779	 0.010521	 0.993842	 0.083314	 -2.253600	 
0.006800	 0.249772	 0.010678	 0.993722	 0.084419	 -2.253607	 
0.006900	 0.249765	 0.010835	 0.993601	 0.085523	 -2.253614	 
0.007000	 0.249758	 0.010992	 0.993479	 0.086625	 -2.253620	 
0.007100	 0.249751	 0.011149	 0.993356	 0.087725	 -2.253627	 
0.007200	 0.249744	 0.011306	 0.993231	 0.088824	 -2.253634	 
0.007300	 0.249737	 0.011463	 0.993105	 0.089921	 -2.253641	 
0.007400	 0.249730	 0.011620	 0.992978	 0.091017	 -2.253648	 
0.007500	 0.249722	 0.011777	 0.992850	 0.092111	 -2.253655	 
0.007600	 0.249715	 0.011934	 0.992720	 0.093203	 -2.253662	 
0.007700	 0.249707	 0.012090	 0.992590	 0.094294	 -2.253669	 
0.007800	 0.249700	 0.012247	 0.992458	 0.095383	 -2.253677	 
0.007900	 0.249692	 0.012404	 0.992325	 0.096471	 -2.253684	 
0.008000	 0.249684	 0.012561	 0.992191	 0.097557	 -2.253691	 
0.008100	 0.249676	 0.012718	 0.992056	 0.098641	 -2.253699	 
0.008200	 0.249668	 0.012875	 0.991919	 0.099724	 -2.253706	 
0.008300	 0.249660	 0.013032	 0.991782	 0.100805	 -2.253714	 
0.008400	 0.249652	 0.013189	 0.991643	 0.101885	 -2.253722	 
0.008500	 0.249644	 0.013345	 0.991503	 0.102963	 -2.253730	 
0.008600	 0.249635	 0.013502	 0.991362	 0.104040	 -2.253738	 
0.008700	 0.249627	 0.013659	 0.991220	 0.105115	 -2.253745	 
0.008800	 0.249618	 0.013816	 0.991076	 0.106188	 -2.253753	 
0.008900	 0.249609	 0.013973	 0.990932	 0.107260	 -2.253762	 
0.009000	 0.249600	 0.014130	 0.990787	 0.108330	 -2.253770	 
0.009100	 0.249591	 0.014286	 0.990640	 0.109399	 -2.253778	 
0.009200	 0.249582	 0.014443	 0.990492	 0.110466	 -2.253786	 
0.009300	 0.249573	 0.014600	 0.990343	 0.111532	 -2.253795	 
0.009400	 0.249564	 0.014757	 0.990194	 0.112596	 -2.253803	 
0.009500	 0.249555	 0.014914	 0.990043	 0.113659	 -2.253812	 
0.009600	 0.249545	 0.015071	 0.989891	 0.114720	 -2.253820	 
0.009700	 0.249536	 0.015227	 0.989738	 0.115779	 -2.253829	 
0.009800	 0.249526	 0.015384	 0.989583	 0.116837	 -2.253838	 
0.009900	 0.249516	 0.015541	 0.989428	 0.117894	 -2.253846	 
0.010000	 0.249507	 0.015698	 0.989272	 0.118949	 -2.253855	 
0.010100	 0.249497	 0.015854	 0.989115	 0.120002	 -2.253864	 
0.010200	 0.249487	 0.016011	 0.988956	 0.121054	 -2.253873	 
0.010300	 0.249477	 0.016168	 0.988797	 0.122105	 -2.253882	 
0.010400	 0.249466	 0.016325	 0.988637	 0.123154	 -2.253891	 
0.010500	 0.249456	 0.016481	 0.988475	 0.124201	 -2.253900	 
0.010600	 0.249446	 0.016638	 0.988313	 0.125247	 -2.253910	 
0.010700	 0.249435	 0.016795	 0.988150	 0.126292	 -2.253919	 
0.010800	 0.249425	 0.016952	 0.987985	 0.127335	 -2.253928	 
0.010900	 0.249414	 0.017108	 0.987820	 0.128376	 -2.253938	 
0.011000	 0.249403	 0.017265	 0.987653	 0.129416	 -2.253947	 
0.011100	 0.249392	 0.017422	 0.987486	 0.130455	 -2.253957	 
0.011200	 0.249381	 0.017578	 0.987317	 0.131492	 -2.253967	 
0.011300	 0.249370	 0.017735	 0.987148	 0.132528	 -2.253976	 
0.011400	 0.249359	 0.017892	 0.986978	 0.133562	 -2.253986	 
0.011500	 0.249348	 0.018048	 0.986806	 0.134595	 -2.253996	 
0.011600	 0.249336	 0.018205	 0.986634	 0.135626	 -2.254006	 
0.011700	 0.249325	 0.018362	 0.986461	 0.136656	 -2.254016	 
0.011800	 0.249313	 0.018518	 0.986287	 0.137684	 -2.254026	 
0.011900	 0.249302	 0.018675	 0.986112	 0.138711	 -2.254036	 
0.012000	 0.249290	 0.018832	 0.985935	 0.139736	 -2.254046	 
0.012100	 0.249278	 0.018988	 0.985758	 0.140760	 -2.254057	 
0.012200	 0.249266	 0.019145	 0.985580	 0.141783	 -2.254067	 
0.012300	 0.249254	 0.019302	 0.985401	 0.142804	 -2.254077	 
0.012400	 0.249242	 0.019458	 0.985222	 0.143824	 -2.254088	 
0.012500	 0.249229	 0.019615	 0.985041	 0.144842	 -2.254098	 
0.012600	 0.249217	 0.019771	 0.984859	 0.145859	 -2.254109	 
0.012700	 0.249204	 0.019928	 0.984677	 0.146874	 -2.254120	 
0.012800	 0.249192	 0.020085	 0.984493	 0.147888	 -2.254130	 
0.012900	 0.249179	 0.020241	 0.984309	 0.148901	 -2.254141	 
0.013000	 0.249166	 0.020398	 0.984123	 0.149912	 -2.254152	 
0.013100	 0.249154	 0.020554	 0.983937	 0.150921	 -2.254163	 
0.013200	 0.249141	 0.020711	 0.983750	 0.151930	 -2.254174	 
0.013300	 0.249128	 0.020867	 0.983562	 0.152937	 -2.254185	 
0.013400	 0.249114	 0.021024	 0.983373	 0.153942	 -2.254196	 
0.013500	 0.249101	 0.021180	 0.983183	 0.154946	 -2.254207	 
0.013600	 0.249088	 0.021337	 0.982993	 0.155949	 -2.254218	 
0.013700	 0.249074	 0.021493	 0.982801	 0.156950	 -2.254229	 
0.013800	 0.249061	 0.021650	 0.982609	 0.157950	 -2.254241	 
0.013900	 0.249047	 0.021806	 0.982416	 0.158949	 -2.254252	 
0.014000	 0.249033	 0.021963	 0.982221	 0.159946	 -2.254264	 
0.014100	 0.249020	 0.022119	 0.982026	 0.160942	 -2.254275	 
0.014200	 0.249006	 0.022276	 0.981831	 0.161936	 -2.254287	 
0.014300	 0.248992	 0.022432	 0.981634	 0.162929	 -2.254298	 
0.014400	 0.248977	 0.022589	 0.981437	 0.163921	 -2.254310	 
0.014500	 0.248963	 0.022745	 0.981238	 0.164911	 -2.254322	 
0.014600	 0.248949	 0.022901	 0.981039	 0.165900	 -2.254333	 
0.014700	 0.248934	 0.023058	 0.980839	 0.166888	 -2.254345	 
0.014800	 0.248920	 0.023214	 0.980638	 0.167874	 -2.254357	 
0.014900	 0.248905	 0.023371	 0.980437	 0.168859	 -2.254369	 
0.015000	 0.248890	 0.023527	 0.980234	 0.169842	 -2.254381	 
0.015100	 0.248876	 0.023683	 0.980031	 0.170825	 -2.254393	 
0.015200	 0.248861	 0.023840	 0.979827	 0.171805	 -2.254405	 
0.015300	 0.248846	 0.023996	 0.979622	 0.172785	 -2.254418	 
0.015400	 0.248831	 0.024153	 0.979416	 0.173763	 -2.254430	 
0.015500	 0.248815	 0.024309	 0.979210	 0.174740	 -2.254442	 
0.015600	 0.248800	 0.024465	 0.979002	 0.175715	 -2.254455	 
0.015700	 0.248785	 0.024622	 0.978794	 0.176689	 -2.254467	 
0.015800	 0.248769	 0.024778	 0.978585	 0.177662	 -2.254480	 
0.015900	 0.248753	 0.024934	 0.978376	 0.178634	 -2.254492	 
0.016000	 0.248738	 0.025090	 0.978165	 0.179604	 -2.254505	 
0.016100	 0.248722	 0.025247	 0.977954	 0.180573	 -2.254518	 
0.016200	 0.248706	 0.025403	 0.977742	 0.181540	 -2.254530	 
0.016300	 0.248690	 0.025559	 0.977529	 0.182506	 -2.254543	 
0.016400	 0.248674	 0.025715	 0.977315	 0.183471	 -2.254556	 
0.016500	 0.248658	 0.025872	 0.977101	 0.184435	 -2.254569	 
0.016600	 0.248641	 0.026028	 0.976886	 0.185397	 -2.254582	 
0.016700	 0.248625	 0.026184	 0.976670	 0.186358	 -2.254595	 
0.016800	 0.248608	 0.026340	 0.976454	 0.187318	 -2.254608	 
0.016900	 0.248592	 0.026497	 0.976236	 0.188276	 -2.254621	 
0.017000	 0.248575	 0.026653	 0.976018	 0.189233	 -2.254634	 
0.017100	 0.248558	 0.026809	 0.975799	 0.190189	 -2.254647	 
0.017200	 0.248542	 0.026965	 0.975580	 0.191143	 -2.254661	 
0.017300	 0.248525	 0.027121	 0.975359	 0.192097	 -2.254674	 
0.017400	 0.248507	 0.027277	 0.975138	 0.193048	 -2.254687	 
0.017500	 0.248490	 0.027434	 0.974917	 0.193999	 -2.254701	 
0.017600	 0.248473	 0.027590	 0.974694	 0.194949	 -2.254714	 
0.017700	 0.248456	 0.027746	 0.974471	 0.195897	 -2.254728	 
0.017800	 0.248438	 0.027902	 0.974247	 0.196843	 -2.254742	 
0.017900	 0.248421	 0.028058	 0.974022	 0.197789	 -2.254755	 
0.018000	 0.248403	 0.028214	 0.973797	 0.198733	 -2.254769	 
0.018100	 0.248385	 0.028370	 0.973571	 0.199676	 -2.254783	 
0.018200	 0.248367	 0.028526	 0.973344	 0.200618	 -2.254797	 
0.018300	 0.248349	 0.028682	 0.973116	 0.201559	 -2.254811	 
0.018400	 0.248331	 0.028838	 0.972888	 0.202498	 -2.254824	 
0.018500	 0.248313	 0.028994	 0.972659	 0.203436	 -2.254838	 
0.018600	 0.248295	 0.029150	 0.972430	 0.204373	 -2.254852	 
0.018700	 0.248276	 0.029306	 0.972199	 0.205308	 -2.254867	 
0.018800	 0.248258	 0.029462	 0.971968	 0.206242	 -2.254881	 
0.018900	 0.248239	 0.029618	 0.971737	 0.207175	 -2.254895	 
0.019000	 0.248221	 0.029774	 0.971504	 0.208107	 -2.254909	 
0.019100	 0.248202	 0.029930	 0.971271	 0.209038	 -2.254924	 
0.019200	 0.248183	 0.030086	 0.971037	 0.209967	 -2.254938	 
0.019300	 0.248164	 0.030242	 0.970803	 0.210895	 -2.254952	 
0.019400	 0.248145	 0.030398	 0.970568	 0.211822	 -2.254967	 
0.019500	 0.248126	 0.030554	 0.970332	 0.212747	 -2.254981	 
0.019600	 0.248107	 0.030710	 0.970096	 0.213672	 -2.254996	 
0.019700	 0.248087	 0.030866	 0.969859	 0.214595	 -2.255010	 
0.019800	 0.248068	 0.031022	 0.969621	 0.215517	 -2.255025	 
0.019900	 0.248048	 0.031177	 0.969382	 0.216438	 -2.255040	 
0.020000	 0.248029	 0.031333	 0.969143	 0.217357	 -2.255055	 
0.020100	 0.248009	 0.031489	 0.968904	 0.218275	 -2.255069	 
0.020200	 0.247989	 0.031645	 0.968663	 0.219193	 -2.255084	 
0.020300	 0.247969	 0.031801	 0.968422	 0.220108	 -2.255099	 
0.020400	 0.247949	 0.031957	 0.968181	 0.221023	 -2.255114	 
0.020500	 0.247929	 0.032112	 0.967938	 0.221937	 -2.255129	 
0.020600	 0.247909	 0.032268	 0.967695	 0.222849	 -2.255144	 
0.020700	 0.247888	 0.032424	 0.967452	 0.223760	 -2.255159	 
0.020800	 0.247868	 0.032580	 0.967208	 0.224670	 -2.255175	 
0.020900	 0.247848	 0.032735	 0.966963	 0.225579	 -2.255190	 
0.021000	 0.247827	 0.032891	 0.966717	 0.226486	 -2.255205	 
0.021100	 0.247806	 0.033047	 0.966471	 0.227392	 -2.255220	 
0.021200	 0.247785	 0.033202	 0.966224	 0.228298	 -2.255236	 
0.021300	 0.247764	 0.033358	 0.965977	 0.229202	 -2.255251	 
0.021400	 0.247743	 0.033514	 0.965729	 0.230104	 -2.255267	 
0.021500	 0.247722	 0.033669	 0.965481	 0.231006	 -2.255282	 
0.021600	 0.247701	 0.033825	 0.965231	 0.231906	 -2.255298	 
0.021700	 0.247680	 0.033981	 0.964982	 0.232806	 -2.255313	 
0.021800	 0.247658	 0.034136	 0.964731	 0.233704	 -2.255329	 
0.021900	 0.247637	 0.034292	 0.964480	 0.234601	 -2.255345	 
0.022000	 0.247615	 0.034448	 0.964228	 0.235497	 -2.255360	 
0.022100	 0.247594	 0.034603	 0.963976	 0.236391	 -2.255376	 
0.022200	 0.247572	 0.034759	 0.963723	 0.237285	 -2.255392	 
0.022300	 0.247550	 0.034914	 0.963470	 0.238177	 -2.255408	 
0.022400	 0.247528	 0.035070	 0.963216	 0.239068	 -2.255424	 
0.022500	 0.247506	 0.035225	 0.962961	 0.239958	 -2.255440	 
0.022600	 0.247484	 0.035381	 0.962706	 0.240847	 -2.255456	 
0.022700	 0.247461	 0.035536	 0.962450	 0.241735	 -2.255472	 
0.022800	 0.247439	 0.035692	 0.962194	 0.242621	 -2.255488	 
0.022900	 0.247417	 0.035847	 0.961937	 0.243507	 -2.255504	 
0.023000	 0.247394	 0.036003	 0.961680	 0.244391	 -2.255520	 
0.023100	 0.247371	 0.036158	 0.961422	 0.245274	 -2.255537	 
0.023200	 0.247349	 0.036314	 0.961163	 0.246156	 -2.255553	 
0.023300	 0.247326	 0.036469	 0.960904	 0.247037	 -2.255569	 
0.023400	 0.247303	 0.036624	 0.960644	 0.247917	 -2.255586	 
0.023500	 0.247280	 0.036780	 0.960383	 0.248795	 -2.255602	 
0.023600	 0.247257	 0.036935	 0.960123	 0.249673	 -2.255619	 
0.023700	 0.247233	 0.037090	 0.959861	 0.250549	 -2.255635	 
0.023800	 0.247210	 0.037246	 0.959599	 0.251424	 -2.255652	 
0.023900	 0.247186	 0.037401	 0.959336	 0.252298	 -2.255668	 
0.024000	 0.247163	 0.037556	 0.959073	 0.253171	 -2.255685	 
0.024100	 0.247139	 0.037712	 0.958809	 0.254043	 -2.255702	 
0.024200	 0.247116	 0.037867	 0.958545	 0.254914	 -2.255718	 
0.024300	 0.247092	 0.038022	 0.958280	 0.255784	 -2.255735	 
0.024400	 0.247068	 0.038177	 0.958015	 0.256652	 -2.255752	 
0.024500	 0.247044	 0.038333	 0.957749	 0.257520	 -2.255769	 
0.024600	 0.247020	 0.038488	 0.957483	 0.258386	 -2.255786	 
0.024700	 0.246995	 0.038643	 0.957216	 0.259251	 -2.255803	 
0.024800	 0.246971	 0.038798	 0.956948	 0.260116	 -2.255820	 
0.024900	 0.246947	 0.038953	 0.956680	 0.260979	 -2.255837	 
0.025000	 0.246922	 0.039109	 0.956411	 0.261841	 -2.255854	 
0.025100	 0.246897	 0.039264	 0.956142	 0.262701	 -2.255871	 
0.025200	 0.246873	 0.039419	 0.955872	 0.263561	 -2.255888	 
0.025300	 0.246848	 0.039574	 0.955602	 0.264420	 -2.255906	 
0.025400	 0.246823	 0.039729	 0.955331	 0.265278	 -2.255923	 
0.025500	 0.246798	 0.039884	 0.955060	 0.266134	 -2.255940	 
0.025600	 0.246773	 0.040039	 0.954788	 0.266989	 -2.255957	 
0.025700	 0.246748	 0.040194	 0.954516	 0.267844	 -2.255975	 
0.025800	 0.246722	 0.040349	 0.954243	 0.268697	 -2.255992	 
0.025900	 0.246697	 0.040504	 0.953970	 0.269549	 -2.256010	 
0.026000	 0.246671	 0.040659	 0.953696	 0.270400	 -2.256027	 
0.026100	 0.246646	 0.040814	 0.953422	 0.271251	 -2.256045	 
0.026200	 0.246620	 0.040969	 0.953147	 0.272100	 -2.256063	 
0.026300	 0.246594	 0.041124	 0.952872	 0.272947	 -2.256080	 
0.026400	 0.246569	 0.041279	 0.952596	 0.273794	 -2.256098	 
0.026500	 0.246543	 0.041434	 0.952319	 0.274640	 -2.256116	 
0.026600	 0.246516	 0.041589	 0.952042	 0.275485	 -2.256133	 
0.026700	 0.246490	 0.041744	 0.951765	 0.276329	 -2.256151	 
0.026800	 0.246464	 0.041899	 0.951487	 0.277171	 -2.256169	 
0.026900	 0.246438	 0.042054	 0.951209	 0.278013	 -2.256187	 
0.027000	 0.246411	 0.042208	 0.950930	 0.278853	 -2.256205	 
0.027100	 0.246385	 0.042363	 0.950651	 0.279693	 -2.256223	 
0.027200	 0.246358	 0.042518	 0.950371	 0.280531	 -2.256241	 
0.027300	 0.246331	 0.042673	 0.950090	 0.281369	 -2.256259	 
0.027400	 0.246304	 0.042828	 0.949810	 0.282205	 -2.256277	 
0.027500	 0.246277	 0.042982	 0.949528	 0.283040	 -2.256295	 
0.027600	 0.246250	 0.043137	 0.949246	 0.283875	 -2.256313	 
0.027700	 0.246223	 0.043292	 0.948964	 0.284708	 -2.256332	 
0.027800	 0.246196	 0.043446	 0.948681	 0.285540	 -2.256350	 
0.027900	 0.246169	 0.043601	 0.948398	 0.286371	 -2.256368	 
0.028000	 0.246141	 0.043756	 0.948114	 0.287201	 -2.256386	 
0.028100	 0.246114	 0.043910	 0.947830	 0.288030	 -2.256405	 
0.028200	 0.246086	 0.044065	 0.947546	 0.288858	 -2.256423	 
0.028300	 0.246058	 0.044220	 0.947261	 0.289685	 -2.256442	 
0.028400	 0.246030	 0.044374	 0.946975	 0.290512	 -2.256460	 
0.028500	 0.246002	 0.044529	 0.946689	 0.291337	 -2.256479	 
0.028600	 0.245974	 0.044683	 0.946402	 0.292161	 -2.256497	 
0.028700	 0.245946	 0.044838	 0.946115	 0.292983	 -2.256516	 
0.028800	 0.245918	 0.044992	 0.945828	 0.293805	 -2.256534	 
0.028900	 0.245890	 0.045147	 0.945540	 0.294626	 -2.256553	 
0.029000	 0.245861	 0.045301	 0.945252	 0.295446	 -2.256572	 
0.029100	 0.245833	 0.045456	 0.944963	 0.296265	 -2.256591	 
0.029200	 0.245804	 0.045610	 0.944674	 0.297083	 -2.256609	 
0.029300	 0.245775	 0.045765	 0.944384	 0.297900	 -2.256628	 
0.029400	 0.245747	 0.045919	 0.944094	 0.298716	 -2.256647	 
0.029500	 0.245718	 0.046074	 0.943803	 0.299531	 -2.256666	 
0.029600	 0.245689	 0.046228	 0.943512	 0.300345	 -2.256685	 
0.029700	 0.245660	 0.046382	 0.943220	 0.301158	 -2.256704	 
0.029800	 0.245630	 0.046537	 0.942928	 0.301970	 -2.256723	 
0.029900	 0.245601	 0.046691	 0.942636	 0.302781	 -2.256742	 
0.030000	 0.245572	 0.046845	 0.942343	 0.303590	 -2.256761	 
0.030100	 0.245542	 0.047000	 0.942050	 0.304399	 -2.256780	 
0.030200	 0.245513	 0.047154	 0.941756	 0.305207	 -2.256799	 
0.030300	 0.245483	 0.047308	 0.941462	 0.306014	 -2.256819	 
0.030400	 0.245453	 0.047462	 0.941167	 0.306820	 -2.256838	 
0.030500	 0.245423	 0.047617	 0.940872	 0.307625	 -2.256857	 
0.030600	 0.245393	 0.047771	 0.940577	 0.308429	 -2.256876	 
0.030700	 0.245363	 0.047925	 0.940281	 0.309232	 -2.256896	 
0.030800	 0.245333	 0.048079	 0.939985	 0.310034	 -2.256915	 
0.030900	 0.245303	 0.048233	 0.939688	 0.310835	 -2.256934	 
0.031000	 0.245273	 0.048387	 0.939391	 0.311636	 -2.256954	 
0.031100	 0.245242	 0.048541	 0.939093	 0.312435	 -2.256973	 
0.031200	 0.245212	 0.048696	 0.938795	 0.313233	 -2.256993	 
0.031300	 0.245181	 0.048850	 0.938497	 0.314030	 -2.257012	 
0.031400	 0.245150	 0.049004	 0.938198	 0.314826	 -2.257032	 
0.031500	 0.245119	 0.049158	 0.937899	 0.315622	 -2.257052	 
