
theta(h[:])	 h[0]	 h[1]	 <m[0]>	 <m[1]>	 <E>	 dim_{Lat}=2	 L=128,128	 J=1.000000,1.000000	 {/Symbol s}_J=0.000000,0.000000	 <J_{ij}>=0.000000,0.000000	 dim_(Spin}=2	 h=-,0.000000	 {/Symbol s}_h=0.500000,0.000000	 <h_i>=0.001995,0.000000	 order=1.000000,0.000000	 order_h=0	 order_r=1	 MCS/{/Symbol d}h=1/0.000100	 

Updating all (first)black/(then)white checkerboard sites simultaneously.. 
0.000000	 0.250000	 0.000000	 1.000000	 -0.000000	 -2.251995	 
0.000100	 0.250000	 0.000157	 0.999999	 0.001245	 -2.251995	 
0.000200	 0.250000	 0.000314	 0.999994	 0.002483	 -2.251995	 
0.000300	 0.250000	 0.000471	 0.999988	 0.003713	 -2.251996	 
0.000400	 0.249999	 0.000628	 0.999979	 0.004935	 -2.251996	 
0.000500	 0.249999	 0.000785	 0.999968	 0.006150	 -2.251996	 
0.000600	 0.249998	 0.000942	 0.999955	 0.007360	 -2.251997	 
0.000700	 0.249998	 0.001100	 0.999940	 0.008565	 -2.251997	 
0.000800	 0.249997	 0.001257	 0.999924	 0.009766	 -2.251998	 
0.000900	 0.249996	 0.001414	 0.999905	 0.010964	 -2.251999	 
0.001000	 0.249995	 0.001571	 0.999885	 0.012160	 -2.252000	 
0.001100	 0.249994	 0.001728	 0.999863	 0.013353	 -2.252001	 
0.001200	 0.249993	 0.001885	 0.999839	 0.014544	 -2.252002	 
0.001300	 0.249992	 0.002042	 0.999814	 0.015733	 -2.252003	 
0.001400	 0.249990	 0.002199	 0.999787	 0.016920	 -2.252004	 
0.001500	 0.249989	 0.002356	 0.999758	 0.018105	 -2.252006	 
0.001600	 0.249987	 0.002513	 0.999727	 0.019288	 -2.252007	 
0.001700	 0.249986	 0.002670	 0.999694	 0.020470	 -2.252008	 
0.001800	 0.249984	 0.002827	 0.999660	 0.021650	 -2.252010	 
0.001900	 0.249982	 0.002984	 0.999624	 0.022829	 -2.252012	 
0.002000	 0.249980	 0.003142	 0.999586	 0.024006	 -2.252013	 
0.002100	 0.249978	 0.003299	 0.999547	 0.025182	 -2.252015	 
0.002200	 0.249976	 0.003456	 0.999505	 0.026356	 -2.252017	 
0.002300	 0.249974	 0.003613	 0.999462	 0.027529	 -2.252019	 
0.002400	 0.249972	 0.003770	 0.999418	 0.028700	 -2.252021	 
0.002500	 0.249969	 0.003927	 0.999372	 0.029870	 -2.252023	 
0.002600	 0.249967	 0.004084	 0.999324	 0.031038	 -2.252026	 
0.002700	 0.249964	 0.004241	 0.999274	 0.032205	 -2.252028	 
0.002800	 0.249961	 0.004398	 0.999223	 0.033371	 -2.252031	 
0.002900	 0.249958	 0.004555	 0.999170	 0.034535	 -2.252033	 
0.003000	 0.249956	 0.004712	 0.999115	 0.035697	 -2.252036	 
0.003100	 0.249953	 0.004869	 0.999059	 0.036858	 -2.252038	 
0.003200	 0.249949	 0.005026	 0.999002	 0.038018	 -2.252041	 
0.003300	 0.249946	 0.005183	 0.998942	 0.039176	 -2.252044	 
0.003400	 0.249943	 0.005340	 0.998881	 0.040333	 -2.252047	 
0.003500	 0.249940	 0.005497	 0.998819	 0.041488	 -2.252050	 
0.003600	 0.249936	 0.005654	 0.998755	 0.042642	 -2.252053	 
0.003700	 0.249932	 0.005811	 0.998689	 0.043795	 -2.252056	 
0.003800	 0.249929	 0.005968	 0.998622	 0.044946	 -2.252060	 
0.003900	 0.249925	 0.006125	 0.998553	 0.046095	 -2.252063	 
0.004000	 0.249921	 0.006283	 0.998483	 0.047243	 -2.252066	 
0.004100	 0.249917	 0.006440	 0.998411	 0.048390	 -2.252070	 
0.004200	 0.249913	 0.006597	 0.998337	 0.049535	 -2.252073	 
0.004300	 0.249909	 0.006754	 0.998263	 0.050678	 -2.252077	 
0.004400	 0.249904	 0.006911	 0.998186	 0.051820	 -2.252081	 
0.004500	 0.249900	 0.007068	 0.998108	 0.052961	 -2.252085	 
0.004600	 0.249896	 0.007225	 0.998029	 0.054100	 -2.252089	 
0.004700	 0.249891	 0.007382	 0.997948	 0.055238	 -2.252093	 
0.004800	 0.249886	 0.007539	 0.997866	 0.056374	 -2.252097	 
0.004900	 0.249882	 0.007696	 0.997782	 0.057508	 -2.252101	 
0.005000	 0.249877	 0.007853	 0.997697	 0.058642	 -2.252105	 
0.005100	 0.249872	 0.008010	 0.997611	 0.059773	 -2.252109	 
0.005200	 0.249867	 0.008167	 0.997523	 0.060904	 -2.252114	 
0.005300	 0.249861	 0.008324	 0.997433	 0.062032	 -2.252118	 
0.005400	 0.249856	 0.008481	 0.997342	 0.063159	 -2.252123	 
0.005500	 0.249851	 0.008638	 0.997250	 0.064285	 -2.252128	 
0.005600	 0.249845	 0.008795	 0.997156	 0.065409	 -2.252132	 
0.005700	 0.249840	 0.008952	 0.997061	 0.066532	 -2.252137	 
0.005800	 0.249834	 0.009109	 0.996965	 0.067653	 -2.252142	 
0.005900	 0.249828	 0.009266	 0.996867	 0.068773	 -2.252147	 
0.006000	 0.249822	 0.009423	 0.996768	 0.069891	 -2.252152	 
0.006100	 0.249816	 0.009580	 0.996667	 0.071008	 -2.252157	 
0.006200	 0.249810	 0.009736	 0.996566	 0.072124	 -2.252162	 
0.006300	 0.249804	 0.009893	 0.996462	 0.073237	 -2.252167	 
0.006400	 0.249798	 0.010050	 0.996358	 0.074350	 -2.252173	 
0.006500	 0.249792	 0.010207	 0.996252	 0.075460	 -2.252178	 
0.006600	 0.249785	 0.010364	 0.996145	 0.076570	 -2.252184	 
0.006700	 0.249779	 0.010521	 0.996037	 0.077678	 -2.252189	 
0.006800	 0.249772	 0.010678	 0.995927	 0.078784	 -2.252195	 
0.006900	 0.249765	 0.010835	 0.995816	 0.079889	 -2.252201	 
0.007000	 0.249758	 0.010992	 0.995703	 0.080992	 -2.252206	 
0.007100	 0.249751	 0.011149	 0.995590	 0.082094	 -2.252212	 
0.007200	 0.249744	 0.011306	 0.995475	 0.083194	 -2.252218	 
0.007300	 0.249737	 0.011463	 0.995359	 0.084293	 -2.252224	 
0.007400	 0.249730	 0.011620	 0.995242	 0.085391	 -2.252230	 
0.007500	 0.249722	 0.011777	 0.995123	 0.086487	 -2.252237	 
0.007600	 0.249715	 0.011934	 0.995003	 0.087581	 -2.252243	 
0.007700	 0.249707	 0.012090	 0.994882	 0.088674	 -2.252249	 
0.007800	 0.249700	 0.012247	 0.994760	 0.089766	 -2.252256	 
0.007900	 0.249692	 0.012404	 0.994636	 0.090856	 -2.252262	 
0.008000	 0.249684	 0.012561	 0.994511	 0.091944	 -2.252269	 
0.008100	 0.249676	 0.012718	 0.994385	 0.093031	 -2.252275	 
0.008200	 0.249668	 0.012875	 0.994258	 0.094117	 -2.252282	 
0.008300	 0.249660	 0.013032	 0.994130	 0.095201	 -2.252289	 
0.008400	 0.249652	 0.013189	 0.994000	 0.096284	 -2.252295	 
0.008500	 0.249644	 0.013345	 0.993870	 0.097365	 -2.252302	 
0.008600	 0.249635	 0.013502	 0.993738	 0.098445	 -2.252309	 
0.008700	 0.249627	 0.013659	 0.993605	 0.099523	 -2.252316	 
0.008800	 0.249618	 0.013816	 0.993470	 0.100600	 -2.252323	 
0.008900	 0.249609	 0.013973	 0.993335	 0.101676	 -2.252331	 
0.009000	 0.249600	 0.014130	 0.993198	 0.102750	 -2.252338	 
0.009100	 0.249591	 0.014286	 0.993061	 0.103822	 -2.252345	 
0.009200	 0.249582	 0.014443	 0.992922	 0.104893	 -2.252353	 
0.009300	 0.249573	 0.014600	 0.992782	 0.105963	 -2.252360	 
0.009400	 0.249564	 0.014757	 0.992641	 0.107031	 -2.252368	 
0.009500	 0.249555	 0.014914	 0.992499	 0.108098	 -2.252375	 
0.009600	 0.249545	 0.015071	 0.992355	 0.109163	 -2.252383	 
0.009700	 0.249536	 0.015227	 0.992211	 0.110227	 -2.252391	 
0.009800	 0.249526	 0.015384	 0.992065	 0.111289	 -2.252399	 
0.009900	 0.249516	 0.015541	 0.991919	 0.112350	 -2.252406	 
0.010000	 0.249507	 0.015698	 0.991771	 0.113410	 -2.252414	 
0.010100	 0.249497	 0.015854	 0.991622	 0.114468	 -2.252422	 
0.010200	 0.249487	 0.016011	 0.991472	 0.115525	 -2.252431	 
0.010300	 0.249477	 0.016168	 0.991321	 0.116580	 -2.252439	 
0.010400	 0.249466	 0.016325	 0.991169	 0.117634	 -2.252447	 
0.010500	 0.249456	 0.016481	 0.991016	 0.118687	 -2.252455	 
0.010600	 0.249446	 0.016638	 0.990862	 0.119738	 -2.252464	 
0.010700	 0.249435	 0.016795	 0.990707	 0.120787	 -2.252472	 
0.010800	 0.249425	 0.016952	 0.990551	 0.121835	 -2.252481	 
0.010900	 0.249414	 0.017108	 0.990394	 0.122882	 -2.252489	 
0.011000	 0.249403	 0.017265	 0.990235	 0.123928	 -2.252498	 
0.011100	 0.249392	 0.017422	 0.990076	 0.124972	 -2.252506	 
0.011200	 0.249381	 0.017578	 0.989916	 0.126014	 -2.252515	 
0.011300	 0.249370	 0.017735	 0.989754	 0.127056	 -2.252524	 
0.011400	 0.249359	 0.017892	 0.989592	 0.128095	 -2.252533	 
0.011500	 0.249348	 0.018048	 0.989428	 0.129134	 -2.252542	 
0.011600	 0.249336	 0.018205	 0.989264	 0.130171	 -2.252551	 
0.011700	 0.249325	 0.018362	 0.989098	 0.131207	 -2.252560	 
0.011800	 0.249313	 0.018518	 0.988932	 0.132241	 -2.252569	 
0.011900	 0.249302	 0.018675	 0.988765	 0.133274	 -2.252579	 
0.012000	 0.249290	 0.018832	 0.988596	 0.134305	 -2.252588	 
0.012100	 0.249278	 0.018988	 0.988427	 0.135335	 -2.252597	 
0.012200	 0.249266	 0.019145	 0.988256	 0.136364	 -2.252607	 
0.012300	 0.249254	 0.019302	 0.988085	 0.137392	 -2.252616	 
0.012400	 0.249242	 0.019458	 0.987913	 0.138418	 -2.252626	 
0.012500	 0.249229	 0.019615	 0.987740	 0.139442	 -2.252635	 
0.012600	 0.249217	 0.019771	 0.987565	 0.140465	 -2.252645	 
0.012700	 0.249204	 0.019928	 0.987390	 0.141487	 -2.252655	 
0.012800	 0.249192	 0.020085	 0.987214	 0.142508	 -2.252665	 
0.012900	 0.249179	 0.020241	 0.987037	 0.143527	 -2.252675	 
0.013000	 0.249166	 0.020398	 0.986859	 0.144545	 -2.252684	 
0.013100	 0.249154	 0.020554	 0.986680	 0.145562	 -2.252695	 
0.013200	 0.249141	 0.020711	 0.986500	 0.146577	 -2.252705	 
0.013300	 0.249128	 0.020867	 0.986319	 0.147591	 -2.252715	 
0.013400	 0.249114	 0.021024	 0.986138	 0.148603	 -2.252725	 
0.013500	 0.249101	 0.021180	 0.985955	 0.149614	 -2.252735	 
0.013600	 0.249088	 0.021337	 0.985771	 0.150624	 -2.252746	 
0.013700	 0.249074	 0.021493	 0.985587	 0.151632	 -2.252756	 
0.013800	 0.249061	 0.021650	 0.985401	 0.152639	 -2.252766	 
0.013900	 0.249047	 0.021806	 0.985215	 0.153645	 -2.252777	 
0.014000	 0.249033	 0.021963	 0.985028	 0.154650	 -2.252787	 
0.014100	 0.249020	 0.022119	 0.984840	 0.155653	 -2.252798	 
0.014200	 0.249006	 0.022276	 0.984651	 0.156655	 -2.252809	 
0.014300	 0.248992	 0.022432	 0.984461	 0.157655	 -2.252820	 
0.014400	 0.248977	 0.022589	 0.984270	 0.158654	 -2.252830	 
0.014500	 0.248963	 0.022745	 0.984079	 0.159652	 -2.252841	 
0.014600	 0.248949	 0.022901	 0.983886	 0.160649	 -2.252852	 
0.014700	 0.248934	 0.023058	 0.983693	 0.161644	 -2.252863	 
0.014800	 0.248920	 0.023214	 0.983499	 0.162638	 -2.252874	 
0.014900	 0.248905	 0.023371	 0.983304	 0.163630	 -2.252885	 
0.015000	 0.248890	 0.023527	 0.983108	 0.164622	 -2.252897	 
0.015100	 0.248876	 0.023683	 0.982911	 0.165612	 -2.252908	 
0.015200	 0.248861	 0.023840	 0.982713	 0.166600	 -2.252919	 
0.015300	 0.248846	 0.023996	 0.982515	 0.167588	 -2.252930	 
0.015400	 0.248831	 0.024153	 0.982315	 0.168574	 -2.252942	 
0.015500	 0.248815	 0.024309	 0.982115	 0.169559	 -2.252953	 
0.015600	 0.248800	 0.024465	 0.981914	 0.170542	 -2.252965	 
0.015700	 0.248785	 0.024622	 0.981712	 0.171525	 -2.252976	 
0.015800	 0.248769	 0.024778	 0.981510	 0.172505	 -2.252988	 
0.015900	 0.248753	 0.024934	 0.981306	 0.173485	 -2.253000	 
0.016000	 0.248738	 0.025090	 0.981102	 0.174464	 -2.253012	 
0.016100	 0.248722	 0.025247	 0.980897	 0.175441	 -2.253023	 
0.016200	 0.248706	 0.025403	 0.980691	 0.176417	 -2.253035	 
0.016300	 0.248690	 0.025559	 0.980484	 0.177391	 -2.253047	 
0.016400	 0.248674	 0.025715	 0.980277	 0.178364	 -2.253059	 
0.016500	 0.248658	 0.025872	 0.980068	 0.179336	 -2.253071	 
0.016600	 0.248641	 0.026028	 0.979859	 0.180307	 -2.253083	 
0.016700	 0.248625	 0.026184	 0.979649	 0.181277	 -2.253096	 
0.016800	 0.248608	 0.026340	 0.979438	 0.182245	 -2.253108	 
0.016900	 0.248592	 0.026497	 0.979227	 0.183212	 -2.253120	 
0.017000	 0.248575	 0.026653	 0.979015	 0.184178	 -2.253132	 
0.017100	 0.248558	 0.026809	 0.978802	 0.185142	 -2.253145	 
0.017200	 0.248542	 0.026965	 0.978588	 0.186106	 -2.253157	 
0.017300	 0.248525	 0.027121	 0.978373	 0.187068	 -2.253170	 
0.017400	 0.248507	 0.027277	 0.978158	 0.188028	 -2.253182	 
0.017500	 0.248490	 0.027434	 0.977941	 0.188988	 -2.253195	 
0.017600	 0.248473	 0.027590	 0.977724	 0.189946	 -2.253208	 
0.017700	 0.248456	 0.027746	 0.977507	 0.190903	 -2.253220	 
0.017800	 0.248438	 0.027902	 0.977288	 0.191859	 -2.253233	 
0.017900	 0.248421	 0.028058	 0.977069	 0.192813	 -2.253246	 
0.018000	 0.248403	 0.028214	 0.976849	 0.193767	 -2.253259	 
0.018100	 0.248385	 0.028370	 0.976628	 0.194719	 -2.253272	 
0.018200	 0.248367	 0.028526	 0.976407	 0.195670	 -2.253285	 
0.018300	 0.248349	 0.028682	 0.976185	 0.196619	 -2.253298	 
0.018400	 0.248331	 0.028838	 0.975962	 0.197568	 -2.253311	 
0.018500	 0.248313	 0.028994	 0.975738	 0.198515	 -2.253324	 
0.018600	 0.248295	 0.029150	 0.975514	 0.199461	 -2.253337	 
0.018700	 0.248276	 0.029306	 0.975288	 0.200406	 -2.253351	 
0.018800	 0.248258	 0.029462	 0.975063	 0.201349	 -2.253364	 
0.018900	 0.248239	 0.029618	 0.974836	 0.202292	 -2.253377	 
0.019000	 0.248221	 0.029774	 0.974609	 0.203233	 -2.253391	 
0.019100	 0.248202	 0.029930	 0.974381	 0.204173	 -2.253404	 
0.019200	 0.248183	 0.030086	 0.974152	 0.205111	 -2.253418	 
0.019300	 0.248164	 0.030242	 0.973922	 0.206049	 -2.253432	 
0.019400	 0.248145	 0.030398	 0.973692	 0.206985	 -2.253445	 
0.019500	 0.248126	 0.030554	 0.973461	 0.207920	 -2.253459	 
0.019600	 0.248107	 0.030710	 0.973230	 0.208854	 -2.253473	 
0.019700	 0.248087	 0.030866	 0.972997	 0.209787	 -2.253486	 
0.019800	 0.248068	 0.031022	 0.972764	 0.210719	 -2.253500	 
0.019900	 0.248048	 0.031177	 0.972531	 0.211649	 -2.253514	 
0.020000	 0.248029	 0.031333	 0.972296	 0.212578	 -2.253528	 
0.020100	 0.248009	 0.031489	 0.972061	 0.213506	 -2.253542	 
0.020200	 0.247989	 0.031645	 0.971826	 0.214433	 -2.253556	 
0.020300	 0.247969	 0.031801	 0.971589	 0.215359	 -2.253570	 
0.020400	 0.247949	 0.031957	 0.971352	 0.216283	 -2.253585	 
0.020500	 0.247929	 0.032112	 0.971114	 0.217207	 -2.253599	 
0.020600	 0.247909	 0.032268	 0.970876	 0.218129	 -2.253613	 
0.020700	 0.247888	 0.032424	 0.970637	 0.219050	 -2.253627	 
0.020800	 0.247868	 0.032580	 0.970397	 0.219969	 -2.253642	 
0.020900	 0.247848	 0.032735	 0.970156	 0.220888	 -2.253656	 
0.021000	 0.247827	 0.032891	 0.969915	 0.221805	 -2.253671	 
0.021100	 0.247806	 0.033047	 0.969674	 0.222722	 -2.253685	 
0.021200	 0.247785	 0.033202	 0.969431	 0.223637	 -2.253700	 
0.021300	 0.247764	 0.033358	 0.969188	 0.224551	 -2.253714	 
0.021400	 0.247743	 0.033514	 0.968944	 0.225464	 -2.253729	 
0.021500	 0.247722	 0.033669	 0.968700	 0.226375	 -2.253744	 
0.021600	 0.247701	 0.033825	 0.968455	 0.227286	 -2.253758	 
0.021700	 0.247680	 0.033981	 0.968209	 0.228195	 -2.253773	 
0.021800	 0.247658	 0.034136	 0.967963	 0.229103	 -2.253788	 
0.021900	 0.247637	 0.034292	 0.967716	 0.230011	 -2.253803	 
0.022000	 0.247615	 0.034448	 0.967468	 0.230916	 -2.253818	 
0.022100	 0.247594	 0.034603	 0.967220	 0.231821	 -2.253833	 
0.022200	 0.247572	 0.034759	 0.966971	 0.232725	 -2.253848	 
0.022300	 0.247550	 0.034914	 0.966722	 0.233627	 -2.253863	 
0.022400	 0.247528	 0.035070	 0.966471	 0.234529	 -2.253878	 
0.022500	 0.247506	 0.035225	 0.966221	 0.235429	 -2.253894	 
0.022600	 0.247484	 0.035381	 0.965969	 0.236328	 -2.253909	 
0.022700	 0.247461	 0.035536	 0.965717	 0.237226	 -2.253924	 
0.022800	 0.247439	 0.035692	 0.965465	 0.238123	 -2.253939	 
0.022900	 0.247417	 0.035847	 0.965211	 0.239019	 -2.253955	 
0.023000	 0.247394	 0.036003	 0.964958	 0.239913	 -2.253970	 
0.023100	 0.247371	 0.036158	 0.964703	 0.240807	 -2.253986	 
0.023200	 0.247349	 0.036314	 0.964448	 0.241699	 -2.254001	 
0.023300	 0.247326	 0.036469	 0.964192	 0.242591	 -2.254017	 
0.023400	 0.247303	 0.036624	 0.963936	 0.243481	 -2.254033	 
0.023500	 0.247280	 0.036780	 0.963679	 0.244370	 -2.254048	 
0.023600	 0.247257	 0.036935	 0.963422	 0.245258	 -2.254064	 
0.023700	 0.247233	 0.037090	 0.963164	 0.246145	 -2.254080	 
0.023800	 0.247210	 0.037246	 0.962905	 0.247030	 -2.254095	 
0.023900	 0.247186	 0.037401	 0.962646	 0.247915	 -2.254111	 
0.024000	 0.247163	 0.037556	 0.962386	 0.248799	 -2.254127	 
0.024100	 0.247139	 0.037712	 0.962126	 0.249681	 -2.254143	 
0.024200	 0.247116	 0.037867	 0.961864	 0.250562	 -2.254159	 
0.024300	 0.247092	 0.038022	 0.961603	 0.251443	 -2.254175	 
0.024400	 0.247068	 0.038177	 0.961341	 0.252322	 -2.254191	 
0.024500	 0.247044	 0.038333	 0.961078	 0.253200	 -2.254207	 
0.024600	 0.247020	 0.038488	 0.960815	 0.254077	 -2.254224	 
0.024700	 0.246995	 0.038643	 0.960551	 0.254953	 -2.254240	 
0.024800	 0.246971	 0.038798	 0.960286	 0.255827	 -2.254256	 
0.024900	 0.246947	 0.038953	 0.960021	 0.256701	 -2.254272	 
0.025000	 0.246922	 0.039109	 0.959756	 0.257574	 -2.254289	 
0.025100	 0.246897	 0.039264	 0.959489	 0.258445	 -2.254305	 
0.025200	 0.246873	 0.039419	 0.959223	 0.259316	 -2.254322	 
0.025300	 0.246848	 0.039574	 0.958955	 0.260185	 -2.254338	 
0.025400	 0.246823	 0.039729	 0.958688	 0.261054	 -2.254355	 
0.025500	 0.246798	 0.039884	 0.958419	 0.261921	 -2.254371	 
0.025600	 0.246773	 0.040039	 0.958150	 0.262787	 -2.254388	 
0.025700	 0.246748	 0.040194	 0.957881	 0.263652	 -2.254405	 
0.025800	 0.246722	 0.040349	 0.957611	 0.264516	 -2.254421	 
0.025900	 0.246697	 0.040504	 0.957340	 0.265379	 -2.254438	 
0.026000	 0.246671	 0.040659	 0.957069	 0.266241	 -2.254455	 
0.026100	 0.246646	 0.040814	 0.956797	 0.267102	 -2.254472	 
0.026200	 0.246620	 0.040969	 0.956525	 0.267962	 -2.254488	 
0.026300	 0.246594	 0.041124	 0.956252	 0.268821	 -2.254505	 
0.026400	 0.246569	 0.041279	 0.955979	 0.269678	 -2.254522	 
0.026500	 0.246543	 0.041434	 0.955705	 0.270535	 -2.254539	 
0.026600	 0.246516	 0.041589	 0.955431	 0.271391	 -2.254556	 
0.026700	 0.246490	 0.041744	 0.955156	 0.272245	 -2.254574	 
0.026800	 0.246464	 0.041899	 0.954880	 0.273099	 -2.254591	 
0.026900	 0.246438	 0.042054	 0.954605	 0.273951	 -2.254608	 
0.027000	 0.246411	 0.042208	 0.954328	 0.274803	 -2.254625	 
0.027100	 0.246385	 0.042363	 0.954051	 0.275653	 -2.254642	 
0.027200	 0.246358	 0.042518	 0.953774	 0.276502	 -2.254660	 
0.027300	 0.246331	 0.042673	 0.953495	 0.277351	 -2.254677	 
0.027400	 0.246304	 0.042828	 0.953217	 0.278198	 -2.254694	 
0.027500	 0.246277	 0.042982	 0.952938	 0.279044	 -2.254712	 
0.027600	 0.246250	 0.043137	 0.952658	 0.279889	 -2.254729	 
0.027700	 0.246223	 0.043292	 0.952378	 0.280734	 -2.254747	 
0.027800	 0.246196	 0.043446	 0.952098	 0.281577	 -2.254764	 
0.027900	 0.246169	 0.043601	 0.951816	 0.282419	 -2.254782	 
0.028000	 0.246141	 0.043756	 0.951535	 0.283260	 -2.254799	 
0.028100	 0.246114	 0.043910	 0.951253	 0.284100	 -2.254817	 
0.028200	 0.246086	 0.044065	 0.950970	 0.284939	 -2.254835	 
0.028300	 0.246058	 0.044220	 0.950687	 0.285777	 -2.254853	 
0.028400	 0.246030	 0.044374	 0.950403	 0.286614	 -2.254870	 
0.028500	 0.246002	 0.044529	 0.950119	 0.287450	 -2.254888	 
0.028600	 0.245974	 0.044683	 0.949835	 0.288285	 -2.254906	 
0.028700	 0.245946	 0.044838	 0.949550	 0.289119	 -2.254924	 
0.028800	 0.245918	 0.044992	 0.949264	 0.289952	 -2.254942	 
0.028900	 0.245890	 0.045147	 0.948978	 0.290784	 -2.254960	 
0.029000	 0.245861	 0.045301	 0.948691	 0.291615	 -2.254978	 
0.029100	 0.245833	 0.045456	 0.948404	 0.292445	 -2.254996	 
0.029200	 0.245804	 0.045610	 0.948117	 0.293274	 -2.255014	 
0.029300	 0.245775	 0.045765	 0.947829	 0.294102	 -2.255032	 
0.029400	 0.245747	 0.045919	 0.947540	 0.294929	 -2.255050	 
0.029500	 0.245718	 0.046074	 0.947251	 0.295755	 -2.255069	 
0.029600	 0.245689	 0.046228	 0.946962	 0.296580	 -2.255087	 
0.029700	 0.245660	 0.046382	 0.946672	 0.297404	 -2.255105	 
0.029800	 0.245630	 0.046537	 0.946382	 0.298227	 -2.255124	 
0.029900	 0.245601	 0.046691	 0.946091	 0.299049	 -2.255142	 
0.030000	 0.245572	 0.046845	 0.945799	 0.299870	 -2.255160	 
0.030100	 0.245542	 0.047000	 0.945508	 0.300690	 -2.255179	 
0.030200	 0.245513	 0.047154	 0.945215	 0.301509	 -2.255197	 
0.030300	 0.245483	 0.047308	 0.944923	 0.302327	 -2.255216	 
0.030400	 0.245453	 0.047462	 0.944629	 0.303144	 -2.255234	 
0.030500	 0.245423	 0.047617	 0.944336	 0.303960	 -2.255253	 
0.030600	 0.245393	 0.047771	 0.944042	 0.304775	 -2.255272	 
0.030700	 0.245363	 0.047925	 0.943747	 0.305589	 -2.255290	 
0.030800	 0.245333	 0.048079	 0.943452	 0.306402	 -2.255309	 
0.030900	 0.245303	 0.048233	 0.943157	 0.307215	 -2.255328	 
0.031000	 0.245273	 0.048387	 0.942861	 0.308026	 -2.255347	 
0.031100	 0.245242	 0.048541	 0.942564	 0.308836	 -2.255365	 
0.031200	 0.245212	 0.048696	 0.942267	 0.309645	 -2.255384	 
0.031300	 0.245181	 0.048850	 0.941970	 0.310454	 -2.255403	 
0.031400	 0.245150	 0.049004	 0.941672	 0.311261	 -2.255422	 
0.031500	 0.245119	 0.049158	 0.941374	 0.312067	 -2.255441	 
