
theta(h[:])	 h[0]	 h[1]	 <m[0]>	 <m[1]>	 <E>	 dim_{Lat}=2	 L=128,128	 J=1.000000,1.000000	 {/Symbol s}_J=0.000000,0.000000	 <J_{ij}>=0.000000,0.000000	 dim_(Spin}=2	 h=-,0.000000	 {/Symbol s}_h=0.500000,0.000000	 <h_i>=-0.000353,0.000000	 order=1.000000,0.000000	 order_h=0	 order_r=1	 MCS/{/Symbol d}h=1/0.000100	 

Updating all (first)black/(then)white checkerboard sites simultaneously.. 
0.000000	 0.250000	 0.000000	 0.999490	 0.003180	 -2.249655	 
0.000100	 0.250000	 0.000157	 0.999445	 0.005186	 -2.249655	 
0.000200	 0.250000	 0.000314	 0.999410	 0.006560	 -2.249656	 
0.000300	 0.250000	 0.000471	 0.999377	 0.007876	 -2.249657	 
0.000400	 0.249999	 0.000628	 0.999343	 0.009163	 -2.249658	 
0.000500	 0.249999	 0.000785	 0.999309	 0.010430	 -2.249659	 
0.000600	 0.249998	 0.000942	 0.999274	 0.011684	 -2.249660	 
0.000700	 0.249998	 0.001100	 0.999238	 0.012927	 -2.249661	 
0.000800	 0.249997	 0.001257	 0.999201	 0.014162	 -2.249663	 
0.000900	 0.249996	 0.001414	 0.999163	 0.015389	 -2.249664	 
0.001000	 0.249995	 0.001571	 0.999123	 0.016611	 -2.249666	 
0.001100	 0.249994	 0.001728	 0.999082	 0.017827	 -2.249668	 
0.001200	 0.249993	 0.001885	 0.999040	 0.019039	 -2.249669	 
0.001300	 0.249992	 0.002042	 0.998997	 0.020246	 -2.249671	 
0.001400	 0.249990	 0.002199	 0.998952	 0.021450	 -2.249673	 
0.001500	 0.249989	 0.002356	 0.998905	 0.022650	 -2.249675	 
0.001600	 0.249987	 0.002513	 0.998857	 0.023847	 -2.249677	 
0.001700	 0.249986	 0.002670	 0.998808	 0.025040	 -2.249679	 
0.001800	 0.249984	 0.002827	 0.998757	 0.026231	 -2.249682	 
0.001900	 0.249982	 0.002984	 0.998705	 0.027419	 -2.249684	 
0.002000	 0.249980	 0.003142	 0.998652	 0.028604	 -2.249687	 
0.002100	 0.249978	 0.003299	 0.998597	 0.029786	 -2.249689	 
0.002200	 0.249976	 0.003456	 0.998540	 0.030966	 -2.249692	 
0.002300	 0.249974	 0.003613	 0.998482	 0.032143	 -2.249695	 
0.002400	 0.249972	 0.003770	 0.998423	 0.033318	 -2.249697	 
0.002500	 0.249969	 0.003927	 0.998362	 0.034491	 -2.249700	 
0.002600	 0.249967	 0.004084	 0.998300	 0.035661	 -2.249703	 
0.002700	 0.249964	 0.004241	 0.998236	 0.036830	 -2.249706	 
0.002800	 0.249961	 0.004398	 0.998171	 0.037996	 -2.249710	 
0.002900	 0.249958	 0.004555	 0.998105	 0.039160	 -2.249713	 
0.003000	 0.249956	 0.004712	 0.998037	 0.040321	 -2.249716	 
0.003100	 0.249953	 0.004869	 0.997967	 0.041481	 -2.249720	 
0.003200	 0.249949	 0.005026	 0.997897	 0.042639	 -2.249723	 
0.003300	 0.249946	 0.005183	 0.997824	 0.043794	 -2.249727	 
0.003400	 0.249943	 0.005340	 0.997751	 0.044948	 -2.249730	 
0.003500	 0.249940	 0.005497	 0.997676	 0.046100	 -2.249734	 
0.003600	 0.249936	 0.005654	 0.997600	 0.047249	 -2.249738	 
0.003700	 0.249932	 0.005811	 0.997522	 0.048397	 -2.249742	 
0.003800	 0.249929	 0.005968	 0.997443	 0.049543	 -2.249746	 
0.003900	 0.249925	 0.006125	 0.997363	 0.050687	 -2.249750	 
0.004000	 0.249921	 0.006283	 0.997281	 0.051829	 -2.249754	 
0.004100	 0.249917	 0.006440	 0.997198	 0.052969	 -2.249758	 
0.004200	 0.249913	 0.006597	 0.997114	 0.054108	 -2.249763	 
0.004300	 0.249909	 0.006754	 0.997028	 0.055245	 -2.249767	 
0.004400	 0.249904	 0.006911	 0.996941	 0.056379	 -2.249772	 
0.004500	 0.249900	 0.007068	 0.996853	 0.057513	 -2.249776	 
0.004600	 0.249896	 0.007225	 0.996763	 0.058644	 -2.249781	 
0.004700	 0.249891	 0.007382	 0.996672	 0.059773	 -2.249785	 
0.004800	 0.249886	 0.007539	 0.996580	 0.060901	 -2.249790	 
0.004900	 0.249882	 0.007696	 0.996486	 0.062027	 -2.249795	 
0.005000	 0.249877	 0.007853	 0.996392	 0.063152	 -2.249800	 
0.005100	 0.249872	 0.008010	 0.996296	 0.064274	 -2.249805	 
0.005200	 0.249867	 0.008167	 0.996198	 0.065395	 -2.249810	 
0.005300	 0.249861	 0.008324	 0.996100	 0.066515	 -2.249815	 
0.005400	 0.249856	 0.008481	 0.996000	 0.067632	 -2.249821	 
0.005500	 0.249851	 0.008638	 0.995899	 0.068748	 -2.249826	 
0.005600	 0.249845	 0.008795	 0.995796	 0.069863	 -2.249832	 
0.005700	 0.249840	 0.008952	 0.995693	 0.070975	 -2.249837	 
0.005800	 0.249834	 0.009109	 0.995588	 0.072086	 -2.249843	 
0.005900	 0.249828	 0.009266	 0.995482	 0.073196	 -2.249848	 
0.006000	 0.249822	 0.009423	 0.995375	 0.074304	 -2.249854	 
0.006100	 0.249816	 0.009580	 0.995266	 0.075410	 -2.249860	 
0.006200	 0.249810	 0.009736	 0.995156	 0.076514	 -2.249866	 
0.006300	 0.249804	 0.009893	 0.995046	 0.077618	 -2.249872	 
0.006400	 0.249798	 0.010050	 0.994934	 0.078719	 -2.249878	 
0.006500	 0.249792	 0.010207	 0.994820	 0.079819	 -2.249884	 
0.006600	 0.249785	 0.010364	 0.994706	 0.080917	 -2.249890	 
0.006700	 0.249779	 0.010521	 0.994590	 0.082014	 -2.249896	 
0.006800	 0.249772	 0.010678	 0.994473	 0.083109	 -2.249903	 
0.006900	 0.249765	 0.010835	 0.994355	 0.084203	 -2.249909	 
0.007000	 0.249758	 0.010992	 0.994236	 0.085295	 -2.249915	 
0.007100	 0.249751	 0.011149	 0.994116	 0.086386	 -2.249922	 
0.007200	 0.249744	 0.011306	 0.993995	 0.087475	 -2.249929	 
0.007300	 0.249737	 0.011463	 0.993872	 0.088563	 -2.249935	 
0.007400	 0.249730	 0.011620	 0.993748	 0.089649	 -2.249942	 
0.007500	 0.249722	 0.011777	 0.993623	 0.090734	 -2.249949	 
0.007600	 0.249715	 0.011934	 0.993498	 0.091817	 -2.249956	 
0.007700	 0.249707	 0.012090	 0.993370	 0.092899	 -2.249963	 
0.007800	 0.249700	 0.012247	 0.993242	 0.093979	 -2.249970	 
0.007900	 0.249692	 0.012404	 0.993113	 0.095058	 -2.249977	 
0.008000	 0.249684	 0.012561	 0.992982	 0.096135	 -2.249984	 
0.008100	 0.249676	 0.012718	 0.992851	 0.097211	 -2.249992	 
0.008200	 0.249668	 0.012875	 0.992718	 0.098285	 -2.249999	 
0.008300	 0.249660	 0.013032	 0.992584	 0.099358	 -2.250006	 
0.008400	 0.249652	 0.013189	 0.992449	 0.100430	 -2.250014	 
0.008500	 0.249644	 0.013345	 0.992313	 0.101500	 -2.250021	 
0.008600	 0.249635	 0.013502	 0.992176	 0.102569	 -2.250029	 
0.008700	 0.249627	 0.013659	 0.992038	 0.103636	 -2.250037	 
0.008800	 0.249618	 0.013816	 0.991899	 0.104702	 -2.250045	 
0.008900	 0.249609	 0.013973	 0.991759	 0.105766	 -2.250052	 
0.009000	 0.249600	 0.014130	 0.991618	 0.106829	 -2.250060	 
0.009100	 0.249591	 0.014286	 0.991475	 0.107891	 -2.250068	 
0.009200	 0.249582	 0.014443	 0.991332	 0.108951	 -2.250076	 
0.009300	 0.249573	 0.014600	 0.991187	 0.110010	 -2.250084	 
0.009400	 0.249564	 0.014757	 0.991042	 0.111068	 -2.250093	 
0.009500	 0.249555	 0.014914	 0.990895	 0.112124	 -2.250101	 
0.009600	 0.249545	 0.015071	 0.990747	 0.113178	 -2.250109	 
0.009700	 0.249536	 0.015227	 0.990599	 0.114232	 -2.250118	 
0.009800	 0.249526	 0.015384	 0.990449	 0.115284	 -2.250126	 
0.009900	 0.249516	 0.015541	 0.990298	 0.116334	 -2.250135	 
0.010000	 0.249507	 0.015698	 0.990147	 0.117383	 -2.250143	 
0.010100	 0.249497	 0.015854	 0.989994	 0.118431	 -2.250152	 
0.010200	 0.249487	 0.016011	 0.989840	 0.119478	 -2.250161	 
0.010300	 0.249477	 0.016168	 0.989685	 0.120523	 -2.250169	 
0.010400	 0.249466	 0.016325	 0.989529	 0.121567	 -2.250178	 
0.010500	 0.249456	 0.016481	 0.989373	 0.122609	 -2.250187	 
0.010600	 0.249446	 0.016638	 0.989215	 0.123650	 -2.250196	 
0.010700	 0.249435	 0.016795	 0.989056	 0.124690	 -2.250205	 
0.010800	 0.249425	 0.016952	 0.988896	 0.125729	 -2.250214	 
0.010900	 0.249414	 0.017108	 0.988735	 0.126766	 -2.250224	 
0.011000	 0.249403	 0.017265	 0.988574	 0.127802	 -2.250233	 
0.011100	 0.249392	 0.017422	 0.988411	 0.128836	 -2.250242	 
0.011200	 0.249381	 0.017578	 0.988247	 0.129869	 -2.250252	 
0.011300	 0.249370	 0.017735	 0.988083	 0.130901	 -2.250261	 
0.011400	 0.249359	 0.017892	 0.987917	 0.131932	 -2.250271	 
0.011500	 0.249348	 0.018048	 0.987750	 0.132961	 -2.250280	 
0.011600	 0.249336	 0.018205	 0.987583	 0.133989	 -2.250290	 
0.011700	 0.249325	 0.018362	 0.987414	 0.135015	 -2.250300	 
0.011800	 0.249313	 0.018518	 0.987245	 0.136041	 -2.250309	 
0.011900	 0.249302	 0.018675	 0.987074	 0.137065	 -2.250319	 
0.012000	 0.249290	 0.018832	 0.986903	 0.138087	 -2.250329	 
0.012100	 0.249278	 0.018988	 0.986731	 0.139109	 -2.250339	 
0.012200	 0.249266	 0.019145	 0.986557	 0.140129	 -2.250349	 
0.012300	 0.249254	 0.019302	 0.986383	 0.141148	 -2.250359	 
0.012400	 0.249242	 0.019458	 0.986208	 0.142166	 -2.250370	 
0.012500	 0.249229	 0.019615	 0.986032	 0.143182	 -2.250380	 
0.012600	 0.249217	 0.019771	 0.985855	 0.144197	 -2.250390	 
0.012700	 0.249204	 0.019928	 0.985677	 0.145211	 -2.250400	 
0.012800	 0.249192	 0.020085	 0.985498	 0.146223	 -2.250411	 
0.012900	 0.249179	 0.020241	 0.985319	 0.147234	 -2.250421	 
0.013000	 0.249166	 0.020398	 0.985138	 0.148244	 -2.250432	 
0.013100	 0.249154	 0.020554	 0.984957	 0.149253	 -2.250443	 
0.013200	 0.249141	 0.020711	 0.984774	 0.150260	 -2.250453	 
0.013300	 0.249128	 0.020867	 0.984591	 0.151266	 -2.250464	 
0.013400	 0.249114	 0.021024	 0.984407	 0.152271	 -2.250475	 
0.013500	 0.249101	 0.021180	 0.984222	 0.153275	 -2.250486	 
0.013600	 0.249088	 0.021337	 0.984036	 0.154277	 -2.250497	 
0.013700	 0.249074	 0.021493	 0.983849	 0.155278	 -2.250508	 
0.013800	 0.249061	 0.021650	 0.983661	 0.156278	 -2.250519	 
0.013900	 0.249047	 0.021806	 0.983473	 0.157277	 -2.250530	 
0.014000	 0.249033	 0.021963	 0.983283	 0.158274	 -2.250541	 
0.014100	 0.249020	 0.022119	 0.983093	 0.159271	 -2.250552	 
0.014200	 0.249006	 0.022276	 0.982901	 0.160265	 -2.250563	 
0.014300	 0.248992	 0.022432	 0.982709	 0.161259	 -2.250575	 
0.014400	 0.248977	 0.022589	 0.982516	 0.162252	 -2.250586	 
0.014500	 0.248963	 0.022745	 0.982323	 0.163243	 -2.250598	 
0.014600	 0.248949	 0.022901	 0.982128	 0.164233	 -2.250609	 
0.014700	 0.248934	 0.023058	 0.981932	 0.165221	 -2.250621	 
0.014800	 0.248920	 0.023214	 0.981736	 0.166209	 -2.250632	 
0.014900	 0.248905	 0.023371	 0.981539	 0.167195	 -2.250644	 
0.015000	 0.248890	 0.023527	 0.981341	 0.168180	 -2.250656	 
0.015100	 0.248876	 0.023683	 0.981142	 0.169164	 -2.250668	 
0.015200	 0.248861	 0.023840	 0.980942	 0.170147	 -2.250680	 
0.015300	 0.248846	 0.023996	 0.980742	 0.171128	 -2.250691	 
0.015400	 0.248831	 0.024153	 0.980540	 0.172109	 -2.250703	 
0.015500	 0.248815	 0.024309	 0.980338	 0.173088	 -2.250715	 
0.015600	 0.248800	 0.024465	 0.980135	 0.174065	 -2.250728	 
0.015700	 0.248785	 0.024622	 0.979931	 0.175042	 -2.250740	 
0.015800	 0.248769	 0.024778	 0.979727	 0.176017	 -2.250752	 
0.015900	 0.248753	 0.024934	 0.979521	 0.176992	 -2.250764	 
0.016000	 0.248738	 0.025090	 0.979315	 0.177965	 -2.250777	 
0.016100	 0.248722	 0.025247	 0.979108	 0.178936	 -2.250789	 
0.016200	 0.248706	 0.025403	 0.978900	 0.179907	 -2.250802	 
0.016300	 0.248690	 0.025559	 0.978692	 0.180876	 -2.250814	 
0.016400	 0.248674	 0.025715	 0.978482	 0.181844	 -2.250827	 
0.016500	 0.248658	 0.025872	 0.978272	 0.182811	 -2.250839	 
0.016600	 0.248641	 0.026028	 0.978061	 0.183777	 -2.250852	 
0.016700	 0.248625	 0.026184	 0.977849	 0.184742	 -2.250865	 
0.016800	 0.248608	 0.026340	 0.977637	 0.185705	 -2.250877	 
0.016900	 0.248592	 0.026497	 0.977423	 0.186668	 -2.250890	 
0.017000	 0.248575	 0.026653	 0.977209	 0.187629	 -2.250903	 
0.017100	 0.248558	 0.026809	 0.976994	 0.188589	 -2.250916	 
0.017200	 0.248542	 0.026965	 0.976778	 0.189547	 -2.250929	 
0.017300	 0.248525	 0.027121	 0.976562	 0.190505	 -2.250942	 
0.017400	 0.248507	 0.027277	 0.976345	 0.191461	 -2.250955	 
0.017500	 0.248490	 0.027434	 0.976127	 0.192416	 -2.250969	 
0.017600	 0.248473	 0.027590	 0.975908	 0.193370	 -2.250982	 
0.017700	 0.248456	 0.027746	 0.975688	 0.194323	 -2.250995	 
0.017800	 0.248438	 0.027902	 0.975468	 0.195275	 -2.251009	 
0.017900	 0.248421	 0.028058	 0.975247	 0.196225	 -2.251022	 
0.018000	 0.248403	 0.028214	 0.975025	 0.197175	 -2.251035	 
0.018100	 0.248385	 0.028370	 0.974803	 0.198123	 -2.251049	 
0.018200	 0.248367	 0.028526	 0.974580	 0.199070	 -2.251062	 
0.018300	 0.248349	 0.028682	 0.974356	 0.200016	 -2.251076	 
0.018400	 0.248331	 0.028838	 0.974131	 0.200961	 -2.251090	 
0.018500	 0.248313	 0.028994	 0.973905	 0.201904	 -2.251104	 
0.018600	 0.248295	 0.029150	 0.973679	 0.202847	 -2.251117	 
0.018700	 0.248276	 0.029306	 0.973452	 0.203788	 -2.251131	 
0.018800	 0.248258	 0.029462	 0.973225	 0.204728	 -2.251145	 
0.018900	 0.248239	 0.029618	 0.972996	 0.205667	 -2.251159	 
0.019000	 0.248221	 0.029774	 0.972767	 0.206605	 -2.251173	 
0.019100	 0.248202	 0.029930	 0.972538	 0.207541	 -2.251187	 
0.019200	 0.248183	 0.030086	 0.972307	 0.208477	 -2.251201	 
0.019300	 0.248164	 0.030242	 0.972076	 0.209411	 -2.251215	 
0.019400	 0.248145	 0.030398	 0.971844	 0.210345	 -2.251229	 
0.019500	 0.248126	 0.030554	 0.971611	 0.211277	 -2.251244	 
0.019600	 0.248107	 0.030710	 0.971378	 0.212208	 -2.251258	 
0.019700	 0.248087	 0.030866	 0.971144	 0.213137	 -2.251272	 
0.019800	 0.248068	 0.031022	 0.970909	 0.214066	 -2.251287	 
0.019900	 0.248048	 0.031177	 0.970674	 0.214994	 -2.251301	 
0.020000	 0.248029	 0.031333	 0.970438	 0.215920	 -2.251316	 
0.020100	 0.248009	 0.031489	 0.970201	 0.216845	 -2.251330	 
0.020200	 0.247989	 0.031645	 0.969963	 0.217770	 -2.251345	 
0.020300	 0.247969	 0.031801	 0.969725	 0.218693	 -2.251360	 
0.020400	 0.247949	 0.031957	 0.969486	 0.219615	 -2.251374	 
0.020500	 0.247929	 0.032112	 0.969247	 0.220535	 -2.251389	 
0.020600	 0.247909	 0.032268	 0.969006	 0.221455	 -2.251404	 
0.020700	 0.247888	 0.032424	 0.968766	 0.222374	 -2.251419	 
0.020800	 0.247868	 0.032580	 0.968524	 0.223291	 -2.251434	 
0.020900	 0.247848	 0.032735	 0.968282	 0.224208	 -2.251449	 
0.021000	 0.247827	 0.032891	 0.968039	 0.225123	 -2.251464	 
0.021100	 0.247806	 0.033047	 0.967795	 0.226037	 -2.251479	 
0.021200	 0.247785	 0.033202	 0.967551	 0.226950	 -2.251494	 
0.021300	 0.247764	 0.033358	 0.967306	 0.227862	 -2.251509	 
0.021400	 0.247743	 0.033514	 0.967061	 0.228773	 -2.251524	 
0.021500	 0.247722	 0.033669	 0.966814	 0.229682	 -2.251540	 
0.021600	 0.247701	 0.033825	 0.966568	 0.230591	 -2.251555	 
0.021700	 0.247680	 0.033981	 0.966320	 0.231499	 -2.251570	 
0.021800	 0.247658	 0.034136	 0.966072	 0.232405	 -2.251586	 
0.021900	 0.247637	 0.034292	 0.965823	 0.233310	 -2.251601	 
0.022000	 0.247615	 0.034448	 0.965574	 0.234214	 -2.251617	 
0.022100	 0.247594	 0.034603	 0.965324	 0.235118	 -2.251632	 
0.022200	 0.247572	 0.034759	 0.965073	 0.236020	 -2.251648	 
0.022300	 0.247550	 0.034914	 0.964822	 0.236920	 -2.251664	 
0.022400	 0.247528	 0.035070	 0.964570	 0.237820	 -2.251679	 
0.022500	 0.247506	 0.035225	 0.964317	 0.238719	 -2.251695	 
0.022600	 0.247484	 0.035381	 0.964064	 0.239617	 -2.251711	 
0.022700	 0.247461	 0.035536	 0.963810	 0.240513	 -2.251727	 
0.022800	 0.247439	 0.035692	 0.963556	 0.241409	 -2.251743	 
0.022900	 0.247417	 0.035847	 0.963301	 0.242303	 -2.251759	 
0.023000	 0.247394	 0.036003	 0.963045	 0.243197	 -2.251775	 
0.023100	 0.247371	 0.036158	 0.962788	 0.244089	 -2.251791	 
0.023200	 0.247349	 0.036314	 0.962532	 0.244980	 -2.251807	 
0.023300	 0.247326	 0.036469	 0.962274	 0.245870	 -2.251823	 
0.023400	 0.247303	 0.036624	 0.962016	 0.246759	 -2.251839	 
0.023500	 0.247280	 0.036780	 0.961757	 0.247647	 -2.251855	 
0.023600	 0.247257	 0.036935	 0.961498	 0.248534	 -2.251872	 
0.023700	 0.247233	 0.037090	 0.961238	 0.249420	 -2.251888	 
0.023800	 0.247210	 0.037246	 0.960977	 0.250305	 -2.251904	 
0.023900	 0.247186	 0.037401	 0.960716	 0.251188	 -2.251921	 
0.024000	 0.247163	 0.037556	 0.960454	 0.252071	 -2.251937	 
0.024100	 0.247139	 0.037712	 0.960192	 0.252952	 -2.251954	 
0.024200	 0.247116	 0.037867	 0.959929	 0.253833	 -2.251970	 
0.024300	 0.247092	 0.038022	 0.959665	 0.254712	 -2.251987	 
0.024400	 0.247068	 0.038177	 0.959401	 0.255591	 -2.252003	 
0.024500	 0.247044	 0.038333	 0.959137	 0.256468	 -2.252020	 
0.024600	 0.247020	 0.038488	 0.958871	 0.257344	 -2.252037	 
0.024700	 0.246995	 0.038643	 0.958605	 0.258220	 -2.252054	 
0.024800	 0.246971	 0.038798	 0.958339	 0.259094	 -2.252070	 
0.024900	 0.246947	 0.038953	 0.958072	 0.259967	 -2.252087	 
0.025000	 0.246922	 0.039109	 0.957804	 0.260839	 -2.252104	 
0.025100	 0.246897	 0.039264	 0.957536	 0.261710	 -2.252121	 
0.025200	 0.246873	 0.039419	 0.957268	 0.262580	 -2.252138	 
0.025300	 0.246848	 0.039574	 0.956998	 0.263449	 -2.252155	 
0.025400	 0.246823	 0.039729	 0.956728	 0.264317	 -2.252172	 
0.025500	 0.246798	 0.039884	 0.956458	 0.265184	 -2.252189	 
0.025600	 0.246773	 0.040039	 0.956187	 0.266050	 -2.252207	 
0.025700	 0.246748	 0.040194	 0.955915	 0.266914	 -2.252224	 
0.025800	 0.246722	 0.040349	 0.955643	 0.267778	 -2.252241	 
0.025900	 0.246697	 0.040504	 0.955371	 0.268641	 -2.252258	 
0.026000	 0.246671	 0.040659	 0.955098	 0.269502	 -2.252276	 
0.026100	 0.246646	 0.040814	 0.954824	 0.270363	 -2.252293	 
0.026200	 0.246620	 0.040969	 0.954549	 0.271223	 -2.252311	 
0.026300	 0.246594	 0.041124	 0.954275	 0.272081	 -2.252328	 
0.026400	 0.246569	 0.041279	 0.953999	 0.272939	 -2.252346	 
0.026500	 0.246543	 0.041434	 0.953723	 0.273795	 -2.252363	 
0.026600	 0.246516	 0.041589	 0.953447	 0.274651	 -2.252381	 
0.026700	 0.246490	 0.041744	 0.953170	 0.275505	 -2.252398	 
0.026800	 0.246464	 0.041899	 0.952892	 0.276359	 -2.252416	 
0.026900	 0.246438	 0.042054	 0.952614	 0.277211	 -2.252434	 
0.027000	 0.246411	 0.042208	 0.952336	 0.278063	 -2.252452	 
0.027100	 0.246385	 0.042363	 0.952056	 0.278913	 -2.252469	 
0.027200	 0.246358	 0.042518	 0.951777	 0.279763	 -2.252487	 
0.027300	 0.246331	 0.042673	 0.951497	 0.280611	 -2.252505	 
0.027400	 0.246304	 0.042828	 0.951216	 0.281458	 -2.252523	 
0.027500	 0.246277	 0.042982	 0.950935	 0.282305	 -2.252541	 
0.027600	 0.246250	 0.043137	 0.950653	 0.283150	 -2.252559	 
0.027700	 0.246223	 0.043292	 0.950371	 0.283995	 -2.252577	 
0.027800	 0.246196	 0.043446	 0.950088	 0.284838	 -2.252595	 
0.027900	 0.246169	 0.043601	 0.949805	 0.285680	 -2.252613	 
0.028000	 0.246141	 0.043756	 0.949521	 0.286522	 -2.252632	 
0.028100	 0.246114	 0.043910	 0.949236	 0.287362	 -2.252650	 
0.028200	 0.246086	 0.044065	 0.948952	 0.288201	 -2.252668	 
0.028300	 0.246058	 0.044220	 0.948666	 0.289040	 -2.252686	 
0.028400	 0.246030	 0.044374	 0.948380	 0.289877	 -2.252705	 
0.028500	 0.246002	 0.044529	 0.948094	 0.290713	 -2.252723	 
0.028600	 0.245974	 0.044683	 0.947807	 0.291549	 -2.252742	 
0.028700	 0.245946	 0.044838	 0.947520	 0.292383	 -2.252760	 
0.028800	 0.245918	 0.044992	 0.947232	 0.293217	 -2.252778	 
0.028900	 0.245890	 0.045147	 0.946944	 0.294049	 -2.252797	 
0.029000	 0.245861	 0.045301	 0.946655	 0.294880	 -2.252816	 
0.029100	 0.245833	 0.045456	 0.946365	 0.295711	 -2.252834	 
0.029200	 0.245804	 0.045610	 0.946076	 0.296540	 -2.252853	 
0.029300	 0.245775	 0.045765	 0.945785	 0.297369	 -2.252872	 
0.029400	 0.245747	 0.045919	 0.945494	 0.298196	 -2.252890	 
0.029500	 0.245718	 0.046074	 0.945203	 0.299023	 -2.252909	 
0.029600	 0.245689	 0.046228	 0.944911	 0.299848	 -2.252928	 
0.029700	 0.245660	 0.046382	 0.944619	 0.300673	 -2.252947	 
0.029800	 0.245630	 0.046537	 0.944326	 0.301497	 -2.252966	 
0.029900	 0.245601	 0.046691	 0.944033	 0.302319	 -2.252985	 
0.030000	 0.245572	 0.046845	 0.943740	 0.303141	 -2.253004	 
0.030100	 0.245542	 0.047000	 0.943445	 0.303961	 -2.253023	 
0.030200	 0.245513	 0.047154	 0.943151	 0.304781	 -2.253042	 
0.030300	 0.245483	 0.047308	 0.942856	 0.305600	 -2.253061	 
0.030400	 0.245453	 0.047462	 0.942560	 0.306418	 -2.253080	 
0.030500	 0.245423	 0.047617	 0.942264	 0.307235	 -2.253099	 
0.030600	 0.245393	 0.047771	 0.941967	 0.308050	 -2.253118	 
0.030700	 0.245363	 0.047925	 0.941671	 0.308865	 -2.253138	 
0.030800	 0.245333	 0.048079	 0.941373	 0.309679	 -2.253157	 
0.030900	 0.245303	 0.048233	 0.941075	 0.310492	 -2.253176	 
0.031000	 0.245273	 0.048387	 0.940777	 0.311304	 -2.253196	 
0.031100	 0.245242	 0.048541	 0.940478	 0.312115	 -2.253215	 
0.031200	 0.245212	 0.048696	 0.940179	 0.312925	 -2.253234	 
0.031300	 0.245181	 0.048850	 0.939879	 0.313734	 -2.253254	 
0.031400	 0.245150	 0.049004	 0.939579	 0.314543	 -2.253273	 
0.031500	 0.245119	 0.049158	 0.939278	 0.315350	 -2.253293	 
