
theta(h[:])	 h[0]	 h[1]	 <m[0]>	 <m[1]>	 <E>	 dim_{Lat}=2	 L=128,128	 J=1.000000,1.000000	 {/Symbol s}_J=0.000000,0.000000	 <J_{ij}>=0.000000,0.000000	 dim_(Spin}=2	 h=-,0.000000	 {/Symbol s}_h=0.500000,0.000000	 <h_i>=0.005481,0.000000	 order=1.000000,0.000000	 order_h=0	 order_r=1	 MCS/{/Symbol d}h=1/0.000100	 

Updating all (first)black/(then)white checkerboard sites simultaneously.. 
0.000000	 0.250000	 0.000000	 1.000000	 0.000000	 -2.255481	 
0.000100	 0.250000	 0.000157	 0.999999	 0.001111	 -2.255481	 
0.000200	 0.250000	 0.000314	 0.999997	 0.002223	 -2.255481	 
0.000300	 0.250000	 0.000471	 0.999993	 0.003334	 -2.255481	 
0.000400	 0.249999	 0.000628	 0.999987	 0.004445	 -2.255482	 
0.000500	 0.249999	 0.000785	 0.999980	 0.005557	 -2.255482	 
0.000600	 0.249998	 0.000942	 0.999971	 0.006668	 -2.255482	 
0.000700	 0.249998	 0.001100	 0.999961	 0.007778	 -2.255483	 
0.000800	 0.249997	 0.001257	 0.999949	 0.008889	 -2.255483	 
0.000900	 0.249996	 0.001414	 0.999935	 0.009999	 -2.255484	 
0.001000	 0.249995	 0.001571	 0.999920	 0.011109	 -2.255485	 
0.001100	 0.249994	 0.001728	 0.999904	 0.012219	 -2.255486	 
0.001200	 0.249993	 0.001885	 0.999885	 0.013328	 -2.255486	 
0.001300	 0.249992	 0.002042	 0.999865	 0.014437	 -2.255487	 
0.001400	 0.249990	 0.002199	 0.999844	 0.015546	 -2.255488	 
0.001500	 0.249989	 0.002356	 0.999821	 0.016654	 -2.255490	 
0.001600	 0.249987	 0.002513	 0.999796	 0.017761	 -2.255491	 
0.001700	 0.249986	 0.002670	 0.999770	 0.018869	 -2.255492	 
0.001800	 0.249984	 0.002827	 0.999743	 0.019975	 -2.255493	 
0.001900	 0.249982	 0.002984	 0.999713	 0.021081	 -2.255495	 
0.002000	 0.249980	 0.003142	 0.999683	 0.022187	 -2.255496	 
0.002100	 0.249978	 0.003299	 0.999650	 0.023292	 -2.255498	 
0.002200	 0.249976	 0.003456	 0.999617	 0.024396	 -2.255499	 
0.002300	 0.249974	 0.003613	 0.999581	 0.025500	 -2.255501	 
0.002400	 0.249972	 0.003770	 0.999544	 0.026603	 -2.255503	 
0.002500	 0.249969	 0.003927	 0.999506	 0.027706	 -2.255505	 
0.002600	 0.249967	 0.004084	 0.999466	 0.028808	 -2.255507	 
0.002700	 0.249964	 0.004241	 0.999425	 0.029909	 -2.255509	 
0.002800	 0.249961	 0.004398	 0.999382	 0.031009	 -2.255511	 
0.002900	 0.249958	 0.004555	 0.999338	 0.032109	 -2.255513	 
0.003000	 0.249956	 0.004712	 0.999292	 0.033208	 -2.255515	 
0.003100	 0.249953	 0.004869	 0.999245	 0.034306	 -2.255517	 
0.003200	 0.249949	 0.005026	 0.999196	 0.035403	 -2.255520	 
0.003300	 0.249946	 0.005183	 0.999146	 0.036500	 -2.255522	 
0.003400	 0.249943	 0.005340	 0.999094	 0.037595	 -2.255525	 
0.003500	 0.249940	 0.005497	 0.999041	 0.038690	 -2.255527	 
0.003600	 0.249936	 0.005654	 0.998986	 0.039784	 -2.255530	 
0.003700	 0.249932	 0.005811	 0.998930	 0.040877	 -2.255533	 
0.003800	 0.249929	 0.005968	 0.998873	 0.041970	 -2.255535	 
0.003900	 0.249925	 0.006125	 0.998814	 0.043061	 -2.255538	 
0.004000	 0.249921	 0.006283	 0.998754	 0.044152	 -2.255541	 
0.004100	 0.249917	 0.006440	 0.998692	 0.045241	 -2.255544	 
0.004200	 0.249913	 0.006597	 0.998629	 0.046330	 -2.255547	 
0.004300	 0.249909	 0.006754	 0.998564	 0.047418	 -2.255551	 
0.004400	 0.249904	 0.006911	 0.998499	 0.048505	 -2.255554	 
0.004500	 0.249900	 0.007068	 0.998431	 0.049591	 -2.255557	 
0.004600	 0.249896	 0.007225	 0.998363	 0.050676	 -2.255561	 
0.004700	 0.249891	 0.007382	 0.998293	 0.051760	 -2.255564	 
0.004800	 0.249886	 0.007539	 0.998221	 0.052843	 -2.255567	 
0.004900	 0.249882	 0.007696	 0.998148	 0.053925	 -2.255571	 
0.005000	 0.249877	 0.007853	 0.998074	 0.055006	 -2.255575	 
0.005100	 0.249872	 0.008010	 0.997999	 0.056086	 -2.255579	 
0.005200	 0.249867	 0.008167	 0.997922	 0.057166	 -2.255582	 
0.005300	 0.249861	 0.008324	 0.997844	 0.058244	 -2.255586	 
0.005400	 0.249856	 0.008481	 0.997765	 0.059321	 -2.255590	 
0.005500	 0.249851	 0.008638	 0.997684	 0.060397	 -2.255594	 
0.005600	 0.249845	 0.008795	 0.997602	 0.061472	 -2.255598	 
0.005700	 0.249840	 0.008952	 0.997518	 0.062546	 -2.255602	 
0.005800	 0.249834	 0.009109	 0.997434	 0.063619	 -2.255607	 
0.005900	 0.249828	 0.009266	 0.997348	 0.064691	 -2.255611	 
0.006000	 0.249822	 0.009423	 0.997261	 0.065762	 -2.255615	 
0.006100	 0.249816	 0.009580	 0.997172	 0.066832	 -2.255620	 
0.006200	 0.249810	 0.009736	 0.997082	 0.067901	 -2.255624	 
0.006300	 0.249804	 0.009893	 0.996991	 0.068968	 -2.255629	 
0.006400	 0.249798	 0.010050	 0.996899	 0.070035	 -2.255634	 
0.006500	 0.249792	 0.010207	 0.996805	 0.071101	 -2.255638	 
0.006600	 0.249785	 0.010364	 0.996710	 0.072165	 -2.255643	 
0.006700	 0.249779	 0.010521	 0.996614	 0.073228	 -2.255648	 
0.006800	 0.249772	 0.010678	 0.996517	 0.074291	 -2.255653	 
0.006900	 0.249765	 0.010835	 0.996418	 0.075352	 -2.255658	 
0.007000	 0.249758	 0.010992	 0.996318	 0.076412	 -2.255663	 
0.007100	 0.249751	 0.011149	 0.996217	 0.077471	 -2.255668	 
0.007200	 0.249744	 0.011306	 0.996115	 0.078529	 -2.255673	 
0.007300	 0.249737	 0.011463	 0.996011	 0.079586	 -2.255679	 
0.007400	 0.249730	 0.011620	 0.995907	 0.080642	 -2.255684	 
0.007500	 0.249722	 0.011777	 0.995801	 0.081696	 -2.255689	 
0.007600	 0.249715	 0.011934	 0.995694	 0.082750	 -2.255695	 
0.007700	 0.249707	 0.012090	 0.995586	 0.083802	 -2.255701	 
0.007800	 0.249700	 0.012247	 0.995476	 0.084854	 -2.255706	 
0.007900	 0.249692	 0.012404	 0.995365	 0.085904	 -2.255712	 
0.008000	 0.249684	 0.012561	 0.995254	 0.086953	 -2.255718	 
0.008100	 0.249676	 0.012718	 0.995141	 0.088001	 -2.255723	 
0.008200	 0.249668	 0.012875	 0.995026	 0.089048	 -2.255729	 
0.008300	 0.249660	 0.013032	 0.994911	 0.090093	 -2.255735	 
0.008400	 0.249652	 0.013189	 0.994795	 0.091138	 -2.255741	 
0.008500	 0.249644	 0.013345	 0.994677	 0.092181	 -2.255747	 
0.008600	 0.249635	 0.013502	 0.994558	 0.093223	 -2.255754	 
0.008700	 0.249627	 0.013659	 0.994438	 0.094264	 -2.255760	 
0.008800	 0.249618	 0.013816	 0.994317	 0.095304	 -2.255766	 
0.008900	 0.249609	 0.013973	 0.994195	 0.096343	 -2.255772	 
0.009000	 0.249600	 0.014130	 0.994072	 0.097381	 -2.255779	 
0.009100	 0.249591	 0.014286	 0.993948	 0.098417	 -2.255785	 
0.009200	 0.249582	 0.014443	 0.993822	 0.099453	 -2.255792	 
0.009300	 0.249573	 0.014600	 0.993696	 0.100487	 -2.255798	 
0.009400	 0.249564	 0.014757	 0.993568	 0.101520	 -2.255805	 
0.009500	 0.249555	 0.014914	 0.993439	 0.102552	 -2.255812	 
0.009600	 0.249545	 0.015071	 0.993309	 0.103583	 -2.255819	 
0.009700	 0.249536	 0.015227	 0.993178	 0.104612	 -2.255825	 
0.009800	 0.249526	 0.015384	 0.993046	 0.105641	 -2.255832	 
0.009900	 0.249516	 0.015541	 0.992913	 0.106668	 -2.255839	 
0.010000	 0.249507	 0.015698	 0.992779	 0.107694	 -2.255846	 
0.010100	 0.249497	 0.015854	 0.992644	 0.108719	 -2.255854	 
0.010200	 0.249487	 0.016011	 0.992508	 0.109743	 -2.255861	 
0.010300	 0.249477	 0.016168	 0.992370	 0.110766	 -2.255868	 
0.010400	 0.249466	 0.016325	 0.992232	 0.111788	 -2.255875	 
0.010500	 0.249456	 0.016481	 0.992092	 0.112808	 -2.255883	 
0.010600	 0.249446	 0.016638	 0.991952	 0.113827	 -2.255890	 
0.010700	 0.249435	 0.016795	 0.991810	 0.114845	 -2.255898	 
0.010800	 0.249425	 0.016952	 0.991668	 0.115862	 -2.255905	 
0.010900	 0.249414	 0.017108	 0.991524	 0.116878	 -2.255913	 
0.011000	 0.249403	 0.017265	 0.991380	 0.117893	 -2.255921	 
0.011100	 0.249392	 0.017422	 0.991234	 0.118906	 -2.255928	 
0.011200	 0.249381	 0.017578	 0.991087	 0.119918	 -2.255936	 
0.011300	 0.249370	 0.017735	 0.990940	 0.120929	 -2.255944	 
0.011400	 0.249359	 0.017892	 0.990791	 0.121939	 -2.255952	 
0.011500	 0.249348	 0.018048	 0.990641	 0.122948	 -2.255960	 
0.011600	 0.249336	 0.018205	 0.990491	 0.123956	 -2.255968	 
0.011700	 0.249325	 0.018362	 0.990339	 0.124962	 -2.255976	 
0.011800	 0.249313	 0.018518	 0.990187	 0.125968	 -2.255984	 
0.011900	 0.249302	 0.018675	 0.990033	 0.126972	 -2.255993	 
0.012000	 0.249290	 0.018832	 0.989878	 0.127975	 -2.256001	 
0.012100	 0.249278	 0.018988	 0.989723	 0.128977	 -2.256009	 
0.012200	 0.249266	 0.019145	 0.989566	 0.129977	 -2.256018	 
0.012300	 0.249254	 0.019302	 0.989409	 0.130977	 -2.256026	 
0.012400	 0.249242	 0.019458	 0.989250	 0.131975	 -2.256035	 
0.012500	 0.249229	 0.019615	 0.989091	 0.132972	 -2.256043	 
0.012600	 0.249217	 0.019771	 0.988931	 0.133968	 -2.256052	 
0.012700	 0.249204	 0.019928	 0.988769	 0.134963	 -2.256061	 
0.012800	 0.249192	 0.020085	 0.988607	 0.135957	 -2.256069	 
0.012900	 0.249179	 0.020241	 0.988444	 0.136950	 -2.256078	 
0.013000	 0.249166	 0.020398	 0.988280	 0.137941	 -2.256087	 
0.013100	 0.249154	 0.020554	 0.988115	 0.138931	 -2.256096	 
0.013200	 0.249141	 0.020711	 0.987949	 0.139921	 -2.256105	 
0.013300	 0.249128	 0.020867	 0.987782	 0.140908	 -2.256114	 
0.013400	 0.249114	 0.021024	 0.987614	 0.141895	 -2.256123	 
0.013500	 0.249101	 0.021180	 0.987446	 0.142881	 -2.256133	 
0.013600	 0.249088	 0.021337	 0.987276	 0.143865	 -2.256142	 
0.013700	 0.249074	 0.021493	 0.987105	 0.144849	 -2.256151	 
0.013800	 0.249061	 0.021650	 0.986934	 0.145831	 -2.256160	 
0.013900	 0.249047	 0.021806	 0.986762	 0.146812	 -2.256170	 
0.014000	 0.249033	 0.021963	 0.986588	 0.147792	 -2.256179	 
0.014100	 0.249020	 0.022119	 0.986414	 0.148771	 -2.256189	 
0.014200	 0.249006	 0.022276	 0.986239	 0.149748	 -2.256198	 
0.014300	 0.248992	 0.022432	 0.986063	 0.150725	 -2.256208	 
0.014400	 0.248977	 0.022589	 0.985887	 0.151700	 -2.256218	 
0.014500	 0.248963	 0.022745	 0.985709	 0.152674	 -2.256228	 
0.014600	 0.248949	 0.022901	 0.985531	 0.153647	 -2.256237	 
0.014700	 0.248934	 0.023058	 0.985351	 0.154619	 -2.256247	 
0.014800	 0.248920	 0.023214	 0.985171	 0.155590	 -2.256257	 
0.014900	 0.248905	 0.023371	 0.984990	 0.156560	 -2.256267	 
0.015000	 0.248890	 0.023527	 0.984808	 0.157528	 -2.256277	 
0.015100	 0.248876	 0.023683	 0.984625	 0.158495	 -2.256287	 
0.015200	 0.248861	 0.023840	 0.984441	 0.159462	 -2.256298	 
0.015300	 0.248846	 0.023996	 0.984257	 0.160427	 -2.256308	 
0.015400	 0.248831	 0.024153	 0.984072	 0.161391	 -2.256318	 
0.015500	 0.248815	 0.024309	 0.983885	 0.162353	 -2.256328	 
0.015600	 0.248800	 0.024465	 0.983698	 0.163315	 -2.256339	 
0.015700	 0.248785	 0.024622	 0.983510	 0.164276	 -2.256349	 
0.015800	 0.248769	 0.024778	 0.983322	 0.165235	 -2.256360	 
0.015900	 0.248753	 0.024934	 0.983132	 0.166193	 -2.256370	 
0.016000	 0.248738	 0.025090	 0.982942	 0.167150	 -2.256381	 
0.016100	 0.248722	 0.025247	 0.982751	 0.168106	 -2.256391	 
0.016200	 0.248706	 0.025403	 0.982559	 0.169061	 -2.256402	 
0.016300	 0.248690	 0.025559	 0.982366	 0.170015	 -2.256413	 
0.016400	 0.248674	 0.025715	 0.982172	 0.170968	 -2.256424	 
0.016500	 0.248658	 0.025872	 0.981978	 0.171919	 -2.256435	 
0.016600	 0.248641	 0.026028	 0.981783	 0.172870	 -2.256446	 
0.016700	 0.248625	 0.026184	 0.981587	 0.173819	 -2.256457	 
0.016800	 0.248608	 0.026340	 0.981390	 0.174767	 -2.256468	 
0.016900	 0.248592	 0.026497	 0.981193	 0.175714	 -2.256479	 
0.017000	 0.248575	 0.026653	 0.980994	 0.176660	 -2.256490	 
0.017100	 0.248558	 0.026809	 0.980795	 0.177605	 -2.256501	 
0.017200	 0.248542	 0.026965	 0.980595	 0.178548	 -2.256512	 
0.017300	 0.248525	 0.027121	 0.980394	 0.179491	 -2.256524	 
0.017400	 0.248507	 0.027277	 0.980193	 0.180433	 -2.256535	 
0.017500	 0.248490	 0.027434	 0.979991	 0.181373	 -2.256546	 
0.017600	 0.248473	 0.027590	 0.979788	 0.182312	 -2.256558	 
0.017700	 0.248456	 0.027746	 0.979584	 0.183250	 -2.256569	 
0.017800	 0.248438	 0.027902	 0.979379	 0.184187	 -2.256581	 
0.017900	 0.248421	 0.028058	 0.979174	 0.185123	 -2.256592	 
0.018000	 0.248403	 0.028214	 0.978968	 0.186058	 -2.256604	 
0.018100	 0.248385	 0.028370	 0.978761	 0.186992	 -2.256616	 
0.018200	 0.248367	 0.028526	 0.978554	 0.187924	 -2.256628	 
0.018300	 0.248349	 0.028682	 0.978345	 0.188856	 -2.256639	 
0.018400	 0.248331	 0.028838	 0.978136	 0.189786	 -2.256651	 
0.018500	 0.248313	 0.028994	 0.977926	 0.190716	 -2.256663	 
0.018600	 0.248295	 0.029150	 0.977716	 0.191644	 -2.256675	 
0.018700	 0.248276	 0.029306	 0.977505	 0.192571	 -2.256687	 
0.018800	 0.248258	 0.029462	 0.977293	 0.193497	 -2.256699	 
0.018900	 0.248239	 0.029618	 0.977080	 0.194422	 -2.256711	 
0.019000	 0.248221	 0.029774	 0.976866	 0.195346	 -2.256723	 
0.019100	 0.248202	 0.029930	 0.976652	 0.196268	 -2.256736	 
0.019200	 0.248183	 0.030086	 0.976437	 0.197190	 -2.256748	 
0.019300	 0.248164	 0.030242	 0.976222	 0.198111	 -2.256760	 
0.019400	 0.248145	 0.030398	 0.976005	 0.199030	 -2.256773	 
0.019500	 0.248126	 0.030554	 0.975788	 0.199949	 -2.256785	 
0.019600	 0.248107	 0.030710	 0.975571	 0.200866	 -2.256797	 
0.019700	 0.248087	 0.030866	 0.975352	 0.201782	 -2.256810	 
0.019800	 0.248068	 0.031022	 0.975133	 0.202697	 -2.256823	 
0.019900	 0.248048	 0.031177	 0.974913	 0.203612	 -2.256835	 
0.020000	 0.248029	 0.031333	 0.974693	 0.204525	 -2.256848	 
0.020100	 0.248009	 0.031489	 0.974471	 0.205437	 -2.256861	 
0.020200	 0.247989	 0.031645	 0.974249	 0.206347	 -2.256873	 
0.020300	 0.247969	 0.031801	 0.974027	 0.207257	 -2.256886	 
0.020400	 0.247949	 0.031957	 0.973803	 0.208166	 -2.256899	 
0.020500	 0.247929	 0.032112	 0.973579	 0.209074	 -2.256912	 
0.020600	 0.247909	 0.032268	 0.973355	 0.209980	 -2.256925	 
0.020700	 0.247888	 0.032424	 0.973129	 0.210886	 -2.256938	 
0.020800	 0.247868	 0.032580	 0.972903	 0.211790	 -2.256951	 
0.020900	 0.247848	 0.032735	 0.972677	 0.212694	 -2.256964	 
0.021000	 0.247827	 0.032891	 0.972449	 0.213596	 -2.256977	 
0.021100	 0.247806	 0.033047	 0.972221	 0.214497	 -2.256990	 
0.021200	 0.247785	 0.033202	 0.971992	 0.215397	 -2.257004	 
0.021300	 0.247764	 0.033358	 0.971763	 0.216297	 -2.257017	 
0.021400	 0.247743	 0.033514	 0.971533	 0.217195	 -2.257030	 
0.021500	 0.247722	 0.033669	 0.971302	 0.218092	 -2.257043	 
0.021600	 0.247701	 0.033825	 0.971071	 0.218988	 -2.257057	 
0.021700	 0.247680	 0.033981	 0.970839	 0.219883	 -2.257070	 
0.021800	 0.247658	 0.034136	 0.970606	 0.220777	 -2.257084	 
0.021900	 0.247637	 0.034292	 0.970373	 0.221669	 -2.257097	 
0.022000	 0.247615	 0.034448	 0.970139	 0.222561	 -2.257111	 
0.022100	 0.247594	 0.034603	 0.969904	 0.223452	 -2.257125	 
0.022200	 0.247572	 0.034759	 0.969669	 0.224342	 -2.257138	 
0.022300	 0.247550	 0.034914	 0.969433	 0.225230	 -2.257152	 
0.022400	 0.247528	 0.035070	 0.969197	 0.226118	 -2.257166	 
0.022500	 0.247506	 0.035225	 0.968960	 0.227005	 -2.257180	 
0.022600	 0.247484	 0.035381	 0.968722	 0.227890	 -2.257194	 
0.022700	 0.247461	 0.035536	 0.968483	 0.228775	 -2.257208	 
0.022800	 0.247439	 0.035692	 0.968244	 0.229658	 -2.257222	 
0.022900	 0.247417	 0.035847	 0.968005	 0.230541	 -2.257236	 
0.023000	 0.247394	 0.036003	 0.967764	 0.231422	 -2.257250	 
0.023100	 0.247371	 0.036158	 0.967524	 0.232302	 -2.257264	 
0.023200	 0.247349	 0.036314	 0.967282	 0.233182	 -2.257278	 
0.023300	 0.247326	 0.036469	 0.967040	 0.234060	 -2.257292	 
0.023400	 0.247303	 0.036624	 0.966797	 0.234937	 -2.257306	 
0.023500	 0.247280	 0.036780	 0.966554	 0.235814	 -2.257321	 
0.023600	 0.247257	 0.036935	 0.966310	 0.236689	 -2.257335	 
0.023700	 0.247233	 0.037090	 0.966065	 0.237563	 -2.257349	 
0.023800	 0.247210	 0.037246	 0.965820	 0.238436	 -2.257364	 
0.023900	 0.247186	 0.037401	 0.965575	 0.239309	 -2.257378	 
0.024000	 0.247163	 0.037556	 0.965328	 0.240180	 -2.257393	 
0.024100	 0.247139	 0.037712	 0.965081	 0.241050	 -2.257407	 
0.024200	 0.247116	 0.037867	 0.964834	 0.241919	 -2.257422	 
0.024300	 0.247092	 0.038022	 0.964586	 0.242787	 -2.257436	 
0.024400	 0.247068	 0.038177	 0.964337	 0.243654	 -2.257451	 
0.024500	 0.247044	 0.038333	 0.964088	 0.244520	 -2.257466	 
0.024600	 0.247020	 0.038488	 0.963838	 0.245386	 -2.257481	 
0.024700	 0.246995	 0.038643	 0.963587	 0.246250	 -2.257495	 
0.024800	 0.246971	 0.038798	 0.963336	 0.247113	 -2.257510	 
0.024900	 0.246947	 0.038953	 0.963085	 0.247975	 -2.257525	 
0.025000	 0.246922	 0.039109	 0.962832	 0.248836	 -2.257540	 
0.025100	 0.246897	 0.039264	 0.962580	 0.249696	 -2.257555	 
0.025200	 0.246873	 0.039419	 0.962326	 0.250555	 -2.257570	 
0.025300	 0.246848	 0.039574	 0.962072	 0.251413	 -2.257585	 
0.025400	 0.246823	 0.039729	 0.961818	 0.252270	 -2.257600	 
0.025500	 0.246798	 0.039884	 0.961563	 0.253126	 -2.257615	 
0.025600	 0.246773	 0.040039	 0.961307	 0.253982	 -2.257630	 
0.025700	 0.246748	 0.040194	 0.961051	 0.254836	 -2.257646	 
0.025800	 0.246722	 0.040349	 0.960794	 0.255689	 -2.257661	 
0.025900	 0.246697	 0.040504	 0.960537	 0.256541	 -2.257676	 
0.026000	 0.246671	 0.040659	 0.960279	 0.257392	 -2.257692	 
0.026100	 0.246646	 0.040814	 0.960021	 0.258242	 -2.257707	 
0.026200	 0.246620	 0.040969	 0.959762	 0.259091	 -2.257722	 
0.026300	 0.246594	 0.041124	 0.959502	 0.259940	 -2.257738	 
0.026400	 0.246569	 0.041279	 0.959242	 0.260787	 -2.257753	 
0.026500	 0.246543	 0.041434	 0.958982	 0.261633	 -2.257769	 
0.026600	 0.246516	 0.041589	 0.958721	 0.262478	 -2.257784	 
0.026700	 0.246490	 0.041744	 0.958459	 0.263323	 -2.257800	 
0.026800	 0.246464	 0.041899	 0.958197	 0.264166	 -2.257816	 
0.026900	 0.246438	 0.042054	 0.957934	 0.265008	 -2.257831	 
0.027000	 0.246411	 0.042208	 0.957671	 0.265850	 -2.257847	 
0.027100	 0.246385	 0.042363	 0.957407	 0.266690	 -2.257863	 
0.027200	 0.246358	 0.042518	 0.957143	 0.267530	 -2.257879	 
0.027300	 0.246331	 0.042673	 0.956878	 0.268368	 -2.257895	 
0.027400	 0.246304	 0.042828	 0.956612	 0.269205	 -2.257911	 
0.027500	 0.246277	 0.042982	 0.956346	 0.270042	 -2.257926	 
0.027600	 0.246250	 0.043137	 0.956080	 0.270878	 -2.257942	 
0.027700	 0.246223	 0.043292	 0.955813	 0.271712	 -2.257958	 
0.027800	 0.246196	 0.043446	 0.955545	 0.272546	 -2.257974	 
0.027900	 0.246169	 0.043601	 0.955277	 0.273378	 -2.257991	 
0.028000	 0.246141	 0.043756	 0.955009	 0.274210	 -2.258007	 
0.028100	 0.246114	 0.043910	 0.954740	 0.275041	 -2.258023	 
0.028200	 0.246086	 0.044065	 0.954470	 0.275871	 -2.258039	 
0.028300	 0.246058	 0.044220	 0.954200	 0.276700	 -2.258055	 
0.028400	 0.246030	 0.044374	 0.953930	 0.277528	 -2.258072	 
0.028500	 0.246002	 0.044529	 0.953659	 0.278355	 -2.258088	 
0.028600	 0.245974	 0.044683	 0.953387	 0.279181	 -2.258104	 
0.028700	 0.245946	 0.044838	 0.953115	 0.280006	 -2.258121	 
0.028800	 0.245918	 0.044992	 0.952843	 0.280830	 -2.258137	 
0.028900	 0.245890	 0.045147	 0.952569	 0.281653	 -2.258154	 
0.029000	 0.245861	 0.045301	 0.952296	 0.282475	 -2.258170	 
0.029100	 0.245833	 0.045456	 0.952022	 0.283296	 -2.258187	 
0.029200	 0.245804	 0.045610	 0.951747	 0.284117	 -2.258203	 
0.029300	 0.245775	 0.045765	 0.951472	 0.284936	 -2.258220	 
0.029400	 0.245747	 0.045919	 0.951197	 0.285755	 -2.258237	 
0.029500	 0.245718	 0.046074	 0.950921	 0.286572	 -2.258253	 
0.029600	 0.245689	 0.046228	 0.950644	 0.287389	 -2.258270	 
0.029700	 0.245660	 0.046382	 0.950367	 0.288204	 -2.258287	 
0.029800	 0.245630	 0.046537	 0.950090	 0.289019	 -2.258304	 
0.029900	 0.245601	 0.046691	 0.949812	 0.289833	 -2.258320	 
0.030000	 0.245572	 0.046845	 0.949533	 0.290646	 -2.258337	 
0.030100	 0.245542	 0.047000	 0.949254	 0.291458	 -2.258354	 
0.030200	 0.245513	 0.047154	 0.948975	 0.292269	 -2.258371	 
0.030300	 0.245483	 0.047308	 0.948695	 0.293079	 -2.258388	 
0.030400	 0.245453	 0.047462	 0.948415	 0.293888	 -2.258405	 
0.030500	 0.245423	 0.047617	 0.948134	 0.294696	 -2.258422	 
0.030600	 0.245393	 0.047771	 0.947853	 0.295504	 -2.258439	 
0.030700	 0.245363	 0.047925	 0.947571	 0.296310	 -2.258456	 
0.030800	 0.245333	 0.048079	 0.947289	 0.297116	 -2.258474	 
0.030900	 0.245303	 0.048233	 0.947006	 0.297920	 -2.258491	 
0.031000	 0.245273	 0.048387	 0.946723	 0.298724	 -2.258508	 
0.031100	 0.245242	 0.048541	 0.946439	 0.299527	 -2.258525	 
0.031200	 0.245212	 0.048696	 0.946155	 0.300329	 -2.258543	 
0.031300	 0.245181	 0.048850	 0.945871	 0.301130	 -2.258560	 
0.031400	 0.245150	 0.049004	 0.945586	 0.301930	 -2.258577	 
0.031500	 0.245119	 0.049158	 0.945300	 0.302729	 -2.258595	 
