
theta(h[:])	 h[0]	 h[1]	 <m[0]>	 <m[1]>	 <E>	 dim_{Lat}=2	 L=128,128	 J=1.000000,1.000000	 {/Symbol s}_J=0.000000,0.000000	 <J_{ij}>=0.000000,0.000000	 dim_(Spin}=2	 h=-,0.000000	 {/Symbol s}_h=0.500000,0.000000	 <h_i>=-0.001298,0.000000	 order=1.000000,0.000000	 order_h=0	 order_r=1	 MCS/{/Symbol d}h=1/0.000100	 

Updating all (first)black/(then)white checkerboard sites simultaneously.. 
0.000000	 0.250000	 0.000000	 0.999918	 -0.000845	 -2.248703	 
0.000100	 0.250000	 0.000157	 0.999919	 0.000389	 -2.248703	 
0.000200	 0.250000	 0.000314	 0.999918	 0.001623	 -2.248703	 
0.000300	 0.250000	 0.000471	 0.999915	 0.002858	 -2.248703	 
0.000400	 0.249999	 0.000628	 0.999909	 0.004092	 -2.248704	 
0.000500	 0.249999	 0.000785	 0.999902	 0.005326	 -2.248704	 
0.000600	 0.249998	 0.000942	 0.999892	 0.006560	 -2.248704	 
0.000700	 0.249998	 0.001100	 0.999881	 0.007794	 -2.248705	 
0.000800	 0.249997	 0.001257	 0.999867	 0.009028	 -2.248705	 
0.000900	 0.249996	 0.001414	 0.999851	 0.010262	 -2.248706	 
0.001000	 0.249995	 0.001571	 0.999833	 0.011495	 -2.248707	 
0.001100	 0.249994	 0.001728	 0.999813	 0.012728	 -2.248708	 
0.001200	 0.249993	 0.001885	 0.999791	 0.013961	 -2.248709	 
0.001300	 0.249992	 0.002042	 0.999767	 0.015194	 -2.248710	 
0.001400	 0.249990	 0.002199	 0.999741	 0.016426	 -2.248711	 
0.001500	 0.249989	 0.002356	 0.999713	 0.017659	 -2.248712	 
0.001600	 0.249987	 0.002513	 0.999684	 0.018893	 -2.248713	 
0.001700	 0.249986	 0.002670	 0.999652	 0.020128	 -2.248715	 
0.001800	 0.249984	 0.002827	 0.999619	 0.021365	 -2.248716	 
0.001900	 0.249982	 0.002984	 0.999585	 0.022608	 -2.248718	 
0.002000	 0.249980	 0.003142	 0.999550	 0.023868	 -2.248720	 
0.002100	 0.249978	 0.003299	 0.999409	 0.026589	 -2.248727	 
0.002200	 0.249976	 0.003456	 0.999363	 0.027801	 -2.248729	 
0.002300	 0.249974	 0.003613	 0.999314	 0.029012	 -2.248731	 
0.002400	 0.249972	 0.003770	 0.999264	 0.030221	 -2.248734	 
0.002500	 0.249969	 0.003927	 0.999212	 0.031428	 -2.248736	 
0.002600	 0.249967	 0.004084	 0.999158	 0.032633	 -2.248739	 
0.002700	 0.249964	 0.004241	 0.999102	 0.033837	 -2.248741	 
0.002800	 0.249961	 0.004398	 0.999045	 0.035040	 -2.248744	 
0.002900	 0.249958	 0.004555	 0.998985	 0.036240	 -2.248747	 
0.003000	 0.249956	 0.004712	 0.998924	 0.037439	 -2.248750	 
0.003100	 0.249953	 0.004869	 0.998861	 0.038636	 -2.248753	 
0.003200	 0.249949	 0.005026	 0.998797	 0.039831	 -2.248756	 
0.003300	 0.249946	 0.005183	 0.998730	 0.041024	 -2.248759	 
0.003400	 0.249943	 0.005340	 0.998662	 0.042216	 -2.248762	 
0.003500	 0.249940	 0.005497	 0.998592	 0.043405	 -2.248765	 
0.003600	 0.249936	 0.005654	 0.998521	 0.044593	 -2.248769	 
0.003700	 0.249932	 0.005811	 0.998448	 0.045779	 -2.248772	 
0.003800	 0.249929	 0.005968	 0.998373	 0.046963	 -2.248776	 
0.003900	 0.249925	 0.006125	 0.998296	 0.048146	 -2.248779	 
0.004000	 0.249921	 0.006283	 0.998218	 0.049326	 -2.248783	 
0.004100	 0.249917	 0.006440	 0.998138	 0.050505	 -2.248787	 
0.004200	 0.249913	 0.006597	 0.998057	 0.051682	 -2.248791	 
0.004300	 0.249909	 0.006754	 0.997974	 0.052857	 -2.248795	 
0.004400	 0.249904	 0.006911	 0.997890	 0.054030	 -2.248799	 
0.004500	 0.249900	 0.007068	 0.997804	 0.055201	 -2.248803	 
0.004600	 0.249896	 0.007225	 0.997716	 0.056370	 -2.248808	 
0.004700	 0.249891	 0.007382	 0.997627	 0.057538	 -2.248812	 
0.004800	 0.249886	 0.007539	 0.997536	 0.058704	 -2.248816	 
0.004900	 0.249882	 0.007696	 0.997444	 0.059868	 -2.248821	 
0.005000	 0.249877	 0.007853	 0.997350	 0.061030	 -2.248826	 
0.005100	 0.249872	 0.008010	 0.997255	 0.062190	 -2.248830	 
0.005200	 0.249867	 0.008167	 0.997158	 0.063348	 -2.248835	 
0.005300	 0.249861	 0.008324	 0.997060	 0.064505	 -2.248840	 
0.005400	 0.249856	 0.008481	 0.996961	 0.065659	 -2.248845	 
0.005500	 0.249851	 0.008638	 0.996860	 0.066812	 -2.248850	 
0.005600	 0.249845	 0.008795	 0.996757	 0.067963	 -2.248855	 
0.005700	 0.249840	 0.008952	 0.996653	 0.069112	 -2.248860	 
0.005800	 0.249834	 0.009109	 0.996548	 0.070260	 -2.248866	 
0.005900	 0.249828	 0.009266	 0.996441	 0.071405	 -2.248871	 
0.006000	 0.249822	 0.009423	 0.996333	 0.072549	 -2.248876	 
0.006100	 0.249816	 0.009580	 0.996224	 0.073691	 -2.248882	 
0.006200	 0.249810	 0.009736	 0.996113	 0.074831	 -2.248888	 
0.006300	 0.249804	 0.009893	 0.996001	 0.075969	 -2.248893	 
0.006400	 0.249798	 0.010050	 0.995887	 0.077106	 -2.248899	 
0.006500	 0.249792	 0.010207	 0.995772	 0.078241	 -2.248905	 
0.006600	 0.249785	 0.010364	 0.995656	 0.079374	 -2.248911	 
0.006700	 0.249779	 0.010521	 0.995538	 0.080505	 -2.248917	 
0.006800	 0.249772	 0.010678	 0.995419	 0.081634	 -2.248923	 
0.006900	 0.249765	 0.010835	 0.995299	 0.082762	 -2.248929	 
0.007000	 0.249758	 0.010992	 0.995178	 0.083888	 -2.248935	 
0.007100	 0.249751	 0.011149	 0.995055	 0.085012	 -2.248942	 
0.007200	 0.249744	 0.011306	 0.994931	 0.086135	 -2.248948	 
0.007300	 0.249737	 0.011463	 0.994806	 0.087256	 -2.248955	 
0.007400	 0.249730	 0.011620	 0.994679	 0.088375	 -2.248961	 
0.007500	 0.249722	 0.011777	 0.994551	 0.089492	 -2.248968	 
0.007600	 0.249715	 0.011934	 0.994422	 0.090607	 -2.248974	 
0.007700	 0.249707	 0.012090	 0.994292	 0.091721	 -2.248981	 
0.007800	 0.249700	 0.012247	 0.994160	 0.092833	 -2.248988	 
0.007900	 0.249692	 0.012404	 0.994027	 0.093944	 -2.248995	 
0.008000	 0.249684	 0.012561	 0.993893	 0.095052	 -2.249002	 
0.008100	 0.249676	 0.012718	 0.993758	 0.096159	 -2.249009	 
0.008200	 0.249668	 0.012875	 0.993621	 0.097265	 -2.249016	 
0.008300	 0.249660	 0.013032	 0.993484	 0.098368	 -2.249024	 
0.008400	 0.249652	 0.013189	 0.993345	 0.099470	 -2.249031	 
0.008500	 0.249644	 0.013345	 0.993205	 0.100570	 -2.249038	 
0.008600	 0.249635	 0.013502	 0.993064	 0.101669	 -2.249046	 
0.008700	 0.249627	 0.013659	 0.992921	 0.102766	 -2.249053	 
0.008800	 0.249618	 0.013816	 0.992778	 0.103861	 -2.249061	 
0.008900	 0.249609	 0.013973	 0.992633	 0.104955	 -2.249069	 
0.009000	 0.249600	 0.014130	 0.992487	 0.106047	 -2.249077	 
0.009100	 0.249591	 0.014286	 0.992340	 0.107137	 -2.249084	 
0.009200	 0.249582	 0.014443	 0.992192	 0.108226	 -2.249092	 
0.009300	 0.249573	 0.014600	 0.992043	 0.109313	 -2.249100	 
0.009400	 0.249564	 0.014757	 0.991892	 0.110398	 -2.249108	 
0.009500	 0.249555	 0.014914	 0.991741	 0.111482	 -2.249117	 
0.009600	 0.249545	 0.015071	 0.991588	 0.112564	 -2.249125	 
0.009700	 0.249536	 0.015227	 0.991435	 0.113645	 -2.249133	 
0.009800	 0.249526	 0.015384	 0.991280	 0.114724	 -2.249141	 
0.009900	 0.249516	 0.015541	 0.991124	 0.115801	 -2.249150	 
0.010000	 0.249507	 0.015698	 0.990967	 0.116877	 -2.249158	 
0.010100	 0.249497	 0.015854	 0.990809	 0.117951	 -2.249167	 
0.010200	 0.249487	 0.016011	 0.990650	 0.119023	 -2.249176	 
0.010300	 0.249477	 0.016168	 0.990490	 0.120094	 -2.249184	 
0.010400	 0.249466	 0.016325	 0.990328	 0.121164	 -2.249193	 
0.010500	 0.249456	 0.016481	 0.990166	 0.122232	 -2.249202	 
0.010600	 0.249446	 0.016638	 0.990003	 0.123298	 -2.249211	 
0.010700	 0.249435	 0.016795	 0.989838	 0.124362	 -2.249220	 
0.010800	 0.249425	 0.016952	 0.989673	 0.125426	 -2.249229	 
0.010900	 0.249414	 0.017108	 0.989506	 0.126487	 -2.249238	 
0.011000	 0.249403	 0.017265	 0.989339	 0.127547	 -2.249247	 
0.011100	 0.249392	 0.017422	 0.989170	 0.128606	 -2.249257	 
0.011200	 0.249381	 0.017578	 0.989001	 0.129663	 -2.249266	 
0.011300	 0.249370	 0.017735	 0.988830	 0.130718	 -2.249276	 
0.011400	 0.249359	 0.017892	 0.988658	 0.131772	 -2.249285	 
0.011500	 0.249348	 0.018048	 0.988486	 0.132824	 -2.249295	 
0.011600	 0.249336	 0.018205	 0.988312	 0.133875	 -2.249304	 
0.011700	 0.249325	 0.018362	 0.988138	 0.134924	 -2.249314	 
0.011800	 0.249313	 0.018518	 0.987962	 0.135972	 -2.249324	 
0.011900	 0.249302	 0.018675	 0.987786	 0.137018	 -2.249334	 
0.012000	 0.249290	 0.018832	 0.987608	 0.138063	 -2.249343	 
0.012100	 0.249278	 0.018988	 0.987430	 0.139106	 -2.249353	 
0.012200	 0.249266	 0.019145	 0.987250	 0.140148	 -2.249363	 
0.012300	 0.249254	 0.019302	 0.987070	 0.141188	 -2.249374	 
0.012400	 0.249242	 0.019458	 0.986888	 0.142227	 -2.249384	 
0.012500	 0.249229	 0.019615	 0.986706	 0.143264	 -2.249394	 
0.012600	 0.249217	 0.019771	 0.986523	 0.144300	 -2.249404	 
0.012700	 0.249204	 0.019928	 0.986339	 0.145334	 -2.249415	 
0.012800	 0.249192	 0.020085	 0.986153	 0.146367	 -2.249425	 
0.012900	 0.249179	 0.020241	 0.985967	 0.147398	 -2.249436	 
0.013000	 0.249166	 0.020398	 0.985780	 0.148428	 -2.249446	 
0.013100	 0.249154	 0.020554	 0.985592	 0.149456	 -2.249457	 
0.013200	 0.249141	 0.020711	 0.985404	 0.150483	 -2.249468	 
0.013300	 0.249128	 0.020867	 0.985214	 0.151509	 -2.249478	 
0.013400	 0.249114	 0.021024	 0.985023	 0.152533	 -2.249489	 
0.013500	 0.249101	 0.021180	 0.984831	 0.153555	 -2.249500	 
0.013600	 0.249088	 0.021337	 0.984639	 0.154576	 -2.249511	 
0.013700	 0.249074	 0.021493	 0.984446	 0.155596	 -2.249522	 
0.013800	 0.249061	 0.021650	 0.984251	 0.156614	 -2.249533	 
0.013900	 0.249047	 0.021806	 0.984056	 0.157631	 -2.249544	 
0.014000	 0.249033	 0.021963	 0.983860	 0.158646	 -2.249555	 
0.014100	 0.249020	 0.022119	 0.983663	 0.159660	 -2.249567	 
0.014200	 0.249006	 0.022276	 0.983465	 0.160673	 -2.249578	 
0.014300	 0.248992	 0.022432	 0.983267	 0.161684	 -2.249589	 
0.014400	 0.248977	 0.022589	 0.983067	 0.162694	 -2.249601	 
0.014500	 0.248963	 0.022745	 0.982867	 0.163702	 -2.249612	 
0.014600	 0.248949	 0.022901	 0.982665	 0.164709	 -2.249624	 
0.014700	 0.248934	 0.023058	 0.982463	 0.165714	 -2.249636	 
0.014800	 0.248920	 0.023214	 0.982260	 0.166718	 -2.249647	 
0.014900	 0.248905	 0.023371	 0.982056	 0.167721	 -2.249659	 
0.015000	 0.248890	 0.023527	 0.981852	 0.168722	 -2.249671	 
0.015100	 0.248876	 0.023683	 0.981646	 0.169722	 -2.249683	 
0.015200	 0.248861	 0.023840	 0.981440	 0.170721	 -2.249695	 
0.015300	 0.248846	 0.023996	 0.981233	 0.171718	 -2.249707	 
0.015400	 0.248831	 0.024153	 0.981025	 0.172714	 -2.249719	 
0.015500	 0.248815	 0.024309	 0.980816	 0.173708	 -2.249731	 
0.015600	 0.248800	 0.024465	 0.980606	 0.174701	 -2.249743	 
0.015700	 0.248785	 0.024622	 0.980396	 0.175693	 -2.249756	 
0.015800	 0.248769	 0.024778	 0.980184	 0.176683	 -2.249768	 
0.015900	 0.248753	 0.024934	 0.979972	 0.177672	 -2.249780	 
0.016000	 0.248738	 0.025090	 0.979759	 0.178659	 -2.249793	 
0.016100	 0.248722	 0.025247	 0.979545	 0.179646	 -2.249805	 
0.016200	 0.248706	 0.025403	 0.979331	 0.180630	 -2.249818	 
0.016300	 0.248690	 0.025559	 0.979116	 0.181614	 -2.249831	 
0.016400	 0.248674	 0.025715	 0.978899	 0.182596	 -2.249843	 
0.016500	 0.248658	 0.025872	 0.978683	 0.183577	 -2.249856	 
0.016600	 0.248641	 0.026028	 0.978465	 0.184556	 -2.249869	 
0.016700	 0.248625	 0.026184	 0.978246	 0.185534	 -2.249882	 
0.016800	 0.248608	 0.026340	 0.978027	 0.186511	 -2.249895	 
0.016900	 0.248592	 0.026497	 0.977807	 0.187487	 -2.249907	 
0.017000	 0.248575	 0.026653	 0.977586	 0.188461	 -2.249921	 
0.017100	 0.248558	 0.026809	 0.977365	 0.189434	 -2.249934	 
0.017200	 0.248542	 0.026965	 0.977142	 0.190405	 -2.249947	 
0.017300	 0.248525	 0.027121	 0.976919	 0.191375	 -2.249960	 
0.017400	 0.248507	 0.027277	 0.976695	 0.192344	 -2.249973	 
0.017500	 0.248490	 0.027434	 0.976471	 0.193312	 -2.249987	 
0.017600	 0.248473	 0.027590	 0.976246	 0.194278	 -2.250000	 
0.017700	 0.248456	 0.027746	 0.976019	 0.195243	 -2.250013	 
0.017800	 0.248438	 0.027902	 0.975793	 0.196206	 -2.250027	 
0.017900	 0.248421	 0.028058	 0.975565	 0.197169	 -2.250040	 
0.018000	 0.248403	 0.028214	 0.975337	 0.198130	 -2.250054	 
0.018100	 0.248385	 0.028370	 0.975108	 0.199090	 -2.250068	 
0.018200	 0.248367	 0.028526	 0.974878	 0.200048	 -2.250081	 
0.018300	 0.248349	 0.028682	 0.974647	 0.201005	 -2.250095	 
0.018400	 0.248331	 0.028838	 0.974416	 0.201961	 -2.250109	 
0.018500	 0.248313	 0.028994	 0.974184	 0.202916	 -2.250123	 
0.018600	 0.248295	 0.029150	 0.973951	 0.203869	 -2.250137	 
0.018700	 0.248276	 0.029306	 0.973718	 0.204821	 -2.250151	 
0.018800	 0.248258	 0.029462	 0.973484	 0.205772	 -2.250165	 
0.018900	 0.248239	 0.029618	 0.973249	 0.206721	 -2.250179	 
0.019000	 0.248221	 0.029774	 0.973013	 0.207670	 -2.250193	 
0.019100	 0.248202	 0.029930	 0.972777	 0.208617	 -2.250207	 
0.019200	 0.248183	 0.030086	 0.972540	 0.209562	 -2.250222	 
0.019300	 0.248164	 0.030242	 0.972303	 0.210507	 -2.250236	 
0.019400	 0.248145	 0.030398	 0.972064	 0.211450	 -2.250250	 
0.019500	 0.248126	 0.030554	 0.971825	 0.212392	 -2.250265	 
0.019600	 0.248107	 0.030710	 0.971586	 0.213333	 -2.250279	 
0.019700	 0.248087	 0.030866	 0.971345	 0.214272	 -2.250294	 
0.019800	 0.248068	 0.031022	 0.971104	 0.215210	 -2.250308	 
0.019900	 0.248048	 0.031177	 0.970862	 0.216147	 -2.250323	 
0.020000	 0.248029	 0.031333	 0.970620	 0.217083	 -2.250338	 
0.020100	 0.248009	 0.031489	 0.970377	 0.218018	 -2.250352	 
0.020200	 0.247989	 0.031645	 0.970133	 0.218951	 -2.250367	 
0.020300	 0.247969	 0.031801	 0.969888	 0.219883	 -2.250382	 
0.020400	 0.247949	 0.031957	 0.969643	 0.220814	 -2.250397	 
0.020500	 0.247929	 0.032112	 0.969398	 0.221743	 -2.250412	 
0.020600	 0.247909	 0.032268	 0.969151	 0.222672	 -2.250427	 
0.020700	 0.247888	 0.032424	 0.968904	 0.223599	 -2.250442	 
0.020800	 0.247868	 0.032580	 0.968656	 0.224525	 -2.250457	 
0.020900	 0.247848	 0.032735	 0.968408	 0.225449	 -2.250472	 
0.021000	 0.247827	 0.032891	 0.968159	 0.226373	 -2.250488	 
0.021100	 0.247806	 0.033047	 0.967909	 0.227295	 -2.250503	 
0.021200	 0.247785	 0.033202	 0.967659	 0.228216	 -2.250518	 
0.021300	 0.247764	 0.033358	 0.967408	 0.229136	 -2.250533	 
0.021400	 0.247743	 0.033514	 0.967156	 0.230055	 -2.250549	 
0.021500	 0.247722	 0.033669	 0.966904	 0.230972	 -2.250564	 
0.021600	 0.247701	 0.033825	 0.966651	 0.231889	 -2.250580	 
0.021700	 0.247680	 0.033981	 0.966397	 0.232804	 -2.250595	 
0.021800	 0.247658	 0.034136	 0.966143	 0.233718	 -2.250611	 
0.021900	 0.247637	 0.034292	 0.965888	 0.234630	 -2.250627	 
0.022000	 0.247615	 0.034448	 0.965633	 0.235542	 -2.250642	 
0.022100	 0.247594	 0.034603	 0.965377	 0.236452	 -2.250658	 
0.022200	 0.247572	 0.034759	 0.965120	 0.237361	 -2.250674	 
0.022300	 0.247550	 0.034914	 0.964863	 0.238269	 -2.250690	 
0.022400	 0.247528	 0.035070	 0.964605	 0.239176	 -2.250706	 
0.022500	 0.247506	 0.035225	 0.964346	 0.240082	 -2.250722	 
0.022600	 0.247484	 0.035381	 0.964087	 0.240986	 -2.250738	 
0.022700	 0.247461	 0.035536	 0.963827	 0.241890	 -2.250754	 
0.022800	 0.247439	 0.035692	 0.963567	 0.242792	 -2.250770	 
0.022900	 0.247417	 0.035847	 0.963306	 0.243693	 -2.250786	 
0.023000	 0.247394	 0.036003	 0.963045	 0.244592	 -2.250802	 
0.023100	 0.247371	 0.036158	 0.962783	 0.245491	 -2.250819	 
0.023200	 0.247349	 0.036314	 0.962520	 0.246389	 -2.250835	 
0.023300	 0.247326	 0.036469	 0.962256	 0.247285	 -2.250851	 
0.023400	 0.247303	 0.036624	 0.961993	 0.248180	 -2.250868	 
0.023500	 0.247280	 0.036780	 0.961728	 0.249074	 -2.250884	 
0.023600	 0.247257	 0.036935	 0.961463	 0.249967	 -2.250901	 
0.023700	 0.247233	 0.037090	 0.961197	 0.250859	 -2.250917	 
0.023800	 0.247210	 0.037246	 0.960931	 0.251749	 -2.250934	 
0.023900	 0.247186	 0.037401	 0.960664	 0.252639	 -2.250950	 
0.024000	 0.247163	 0.037556	 0.960397	 0.253527	 -2.250967	 
0.024100	 0.247139	 0.037712	 0.960129	 0.254414	 -2.250984	 
0.024200	 0.247116	 0.037867	 0.959860	 0.255300	 -2.251001	 
0.024300	 0.247092	 0.038022	 0.959591	 0.256185	 -2.251017	 
0.024400	 0.247068	 0.038177	 0.959321	 0.257069	 -2.251034	 
0.024500	 0.247044	 0.038333	 0.959051	 0.257952	 -2.251051	 
0.024600	 0.247020	 0.038488	 0.958780	 0.258833	 -2.251068	 
0.024700	 0.246995	 0.038643	 0.958509	 0.259714	 -2.251085	 
0.024800	 0.246971	 0.038798	 0.958237	 0.260593	 -2.251102	 
0.024900	 0.246947	 0.038953	 0.957965	 0.261471	 -2.251119	 
0.025000	 0.246922	 0.039109	 0.957692	 0.262349	 -2.251137	 
0.025100	 0.246897	 0.039264	 0.957418	 0.263224	 -2.251154	 
0.025200	 0.246873	 0.039419	 0.957144	 0.264099	 -2.251171	 
0.025300	 0.246848	 0.039574	 0.956869	 0.264973	 -2.251188	 
0.025400	 0.246823	 0.039729	 0.956594	 0.265846	 -2.251206	 
0.025500	 0.246798	 0.039884	 0.956318	 0.266717	 -2.251223	 
0.025600	 0.246773	 0.040039	 0.956042	 0.267588	 -2.251240	 
0.025700	 0.246748	 0.040194	 0.955765	 0.268457	 -2.251258	 
0.025800	 0.246722	 0.040349	 0.955488	 0.269325	 -2.251275	 
0.025900	 0.246697	 0.040504	 0.955210	 0.270193	 -2.251293	 
0.026000	 0.246671	 0.040659	 0.954931	 0.271059	 -2.251310	 
0.026100	 0.246646	 0.040814	 0.954652	 0.271924	 -2.251328	 
0.026200	 0.246620	 0.040969	 0.954373	 0.272787	 -2.251346	 
0.026300	 0.246594	 0.041124	 0.954093	 0.273650	 -2.251363	 
0.026400	 0.246569	 0.041279	 0.953812	 0.274512	 -2.251381	 
0.026500	 0.246543	 0.041434	 0.953531	 0.275373	 -2.251399	 
0.026600	 0.246516	 0.041589	 0.953249	 0.276232	 -2.251417	 
0.026700	 0.246490	 0.041744	 0.952967	 0.277091	 -2.251435	 
0.026800	 0.246464	 0.041899	 0.952684	 0.277948	 -2.251453	 
0.026900	 0.246438	 0.042054	 0.952401	 0.278804	 -2.251471	 
0.027000	 0.246411	 0.042208	 0.952118	 0.279660	 -2.251489	 
0.027100	 0.246385	 0.042363	 0.951833	 0.280514	 -2.251507	 
0.027200	 0.246358	 0.042518	 0.951549	 0.281367	 -2.251525	 
0.027300	 0.246331	 0.042673	 0.951263	 0.282219	 -2.251543	 
0.027400	 0.246304	 0.042828	 0.950978	 0.283070	 -2.251561	 
0.027500	 0.246277	 0.042982	 0.950692	 0.283920	 -2.251580	 
0.027600	 0.246250	 0.043137	 0.950405	 0.284769	 -2.251598	 
0.027700	 0.246223	 0.043292	 0.950118	 0.285617	 -2.251616	 
0.027800	 0.246196	 0.043446	 0.949830	 0.286464	 -2.251634	 
0.027900	 0.246169	 0.043601	 0.949542	 0.287309	 -2.251653	 
0.028000	 0.246141	 0.043756	 0.949253	 0.288154	 -2.251671	 
0.028100	 0.246114	 0.043910	 0.948964	 0.288998	 -2.251690	 
0.028200	 0.246086	 0.044065	 0.948674	 0.289840	 -2.251708	 
0.028300	 0.246058	 0.044220	 0.948384	 0.290682	 -2.251727	 
0.028400	 0.246030	 0.044374	 0.948093	 0.291522	 -2.251746	 
0.028500	 0.246002	 0.044529	 0.947802	 0.292362	 -2.251764	 
0.028600	 0.245974	 0.044683	 0.947510	 0.293200	 -2.251783	 
0.028700	 0.245946	 0.044838	 0.947218	 0.294038	 -2.251802	 
0.028800	 0.245918	 0.044992	 0.946926	 0.294874	 -2.251820	 
0.028900	 0.245890	 0.045147	 0.946633	 0.295709	 -2.251839	 
0.029000	 0.245861	 0.045301	 0.946339	 0.296544	 -2.251858	 
0.029100	 0.245833	 0.045456	 0.946045	 0.297377	 -2.251877	 
0.029200	 0.245804	 0.045610	 0.945751	 0.298209	 -2.251896	 
0.029300	 0.245775	 0.045765	 0.945456	 0.299040	 -2.251915	 
0.029400	 0.245747	 0.045919	 0.945160	 0.299870	 -2.251934	 
0.029500	 0.245718	 0.046074	 0.944864	 0.300700	 -2.251953	 
0.029600	 0.245689	 0.046228	 0.944568	 0.301528	 -2.251972	 
0.029700	 0.245660	 0.046382	 0.944271	 0.302355	 -2.251991	 
0.029800	 0.245630	 0.046537	 0.943974	 0.303181	 -2.252010	 
0.029900	 0.245601	 0.046691	 0.943676	 0.304006	 -2.252030	 
0.030000	 0.245572	 0.046845	 0.943378	 0.304830	 -2.252049	 
0.030100	 0.245542	 0.047000	 0.943079	 0.305653	 -2.252068	 
0.030200	 0.245513	 0.047154	 0.942780	 0.306475	 -2.252087	 
0.030300	 0.245483	 0.047308	 0.942480	 0.307296	 -2.252107	 
0.030400	 0.245453	 0.047462	 0.942180	 0.308117	 -2.252126	 
0.030500	 0.245423	 0.047617	 0.941880	 0.308936	 -2.252146	 
0.030600	 0.245393	 0.047771	 0.941579	 0.309754	 -2.252165	 
0.030700	 0.245363	 0.047925	 0.941278	 0.310571	 -2.252185	 
0.030800	 0.245333	 0.048079	 0.940976	 0.311387	 -2.252204	 
0.030900	 0.245303	 0.048233	 0.940674	 0.312202	 -2.252224	 
0.031000	 0.245273	 0.048387	 0.940371	 0.313016	 -2.252243	 
0.031100	 0.245242	 0.048541	 0.940068	 0.313829	 -2.252263	 
0.031200	 0.245212	 0.048696	 0.939764	 0.314641	 -2.252283	 
0.031300	 0.245181	 0.048850	 0.939460	 0.315452	 -2.252302	 
0.031400	 0.245150	 0.049004	 0.939156	 0.316263	 -2.252322	 
0.031500	 0.245119	 0.049158	 0.938851	 0.317072	 -2.252342	 
