
theta(h[:])	 h[0]	 h[1]	 <m[0]>	 <m[1]>	 <E>	 dim_{Lat}=2	 L=128,128	 J=1.000000,1.000000	 {/Symbol s}_J=0.000000,0.000000	 <J_{ij}>=0.000000,0.000000	 dim_(Spin}=2	 h=-,0.000000	 {/Symbol s}_h=0.500000,0.000000	 <h_i>=-0.000067,0.000000	 order=1.000000,0.000000	 order_h=0	 order_r=1	 MCS/{/Symbol d}h=1/0.000100	 

Updating all (first)black/(then)white checkerboard sites simultaneously.. 
0.000000	 0.250000	 0.000000	 0.999313	 -0.002693	 -2.249944	 
0.000100	 0.250000	 0.000157	 0.999313	 -0.000867	 -2.249944	 
0.000200	 0.250000	 0.000314	 0.999305	 0.000740	 -2.249944	 
0.000300	 0.250000	 0.000471	 0.999294	 0.002259	 -2.249944	 
0.000400	 0.249999	 0.000628	 0.999282	 0.003734	 -2.249944	 
0.000500	 0.249999	 0.000785	 0.999267	 0.005180	 -2.249944	 
0.000600	 0.249998	 0.000942	 0.999252	 0.006607	 -2.249945	 
0.000700	 0.249998	 0.001100	 0.999234	 0.008021	 -2.249945	 
0.000800	 0.249997	 0.001257	 0.999216	 0.009425	 -2.249946	 
0.000900	 0.249996	 0.001414	 0.999196	 0.010823	 -2.249946	 
0.001000	 0.249995	 0.001571	 0.999175	 0.012219	 -2.249947	 
0.001100	 0.249994	 0.001728	 0.999154	 0.013618	 -2.249948	 
0.001200	 0.249993	 0.001885	 0.999135	 0.015029	 -2.249949	 
0.001300	 0.249992	 0.002042	 0.999121	 0.016486	 -2.249951	 
0.001400	 0.249990	 0.002199	 0.998739	 0.021875	 -2.249962	 
0.001500	 0.249989	 0.002356	 0.998683	 0.023185	 -2.249964	 
0.001600	 0.249987	 0.002513	 0.998627	 0.024488	 -2.249966	 
0.001700	 0.249986	 0.002670	 0.998568	 0.025785	 -2.249968	 
0.001800	 0.249984	 0.002827	 0.998508	 0.027077	 -2.249971	 
0.001900	 0.249982	 0.002984	 0.998446	 0.028363	 -2.249973	 
0.002000	 0.249980	 0.003142	 0.998383	 0.029644	 -2.249976	 
0.002100	 0.249978	 0.003299	 0.998318	 0.030920	 -2.249979	 
0.002200	 0.249976	 0.003456	 0.998252	 0.032192	 -2.249982	 
0.002300	 0.249974	 0.003613	 0.998185	 0.033460	 -2.249984	 
0.002400	 0.249972	 0.003770	 0.998116	 0.034724	 -2.249988	 
0.002500	 0.249969	 0.003927	 0.998045	 0.035984	 -2.249991	 
0.002600	 0.249967	 0.004084	 0.997973	 0.037242	 -2.249994	 
0.002700	 0.249964	 0.004241	 0.997900	 0.038496	 -2.249997	 
0.002800	 0.249961	 0.004398	 0.997826	 0.039749	 -2.250001	 
0.002900	 0.249958	 0.004555	 0.997751	 0.041000	 -2.250004	 
0.003000	 0.249956	 0.004712	 0.997675	 0.042251	 -2.250008	 
0.003100	 0.249953	 0.004869	 0.997598	 0.043503	 -2.250012	 
0.003200	 0.249949	 0.005026	 0.997521	 0.044761	 -2.250015	 
0.003300	 0.249946	 0.005183	 0.997445	 0.046035	 -2.250019	 
0.003400	 0.249943	 0.005340	 0.997045	 0.050286	 -2.250041	 
0.003500	 0.249940	 0.005497	 0.996951	 0.051492	 -2.250046	 
0.003600	 0.249936	 0.005654	 0.996856	 0.052694	 -2.250050	 
0.003700	 0.249932	 0.005811	 0.996759	 0.053893	 -2.250055	 
0.003800	 0.249929	 0.005968	 0.996660	 0.055088	 -2.250060	 
0.003900	 0.249925	 0.006125	 0.996561	 0.056281	 -2.250065	 
0.004000	 0.249921	 0.006283	 0.996460	 0.057470	 -2.250070	 
0.004100	 0.249917	 0.006440	 0.996358	 0.058656	 -2.250075	 
0.004200	 0.249913	 0.006597	 0.996254	 0.059839	 -2.250080	 
0.004300	 0.249909	 0.006754	 0.996149	 0.061018	 -2.250086	 
0.004400	 0.249904	 0.006911	 0.996043	 0.062195	 -2.250091	 
0.004500	 0.249900	 0.007068	 0.995936	 0.063369	 -2.250097	 
0.004600	 0.249896	 0.007225	 0.995827	 0.064540	 -2.250102	 
0.004700	 0.249891	 0.007382	 0.995718	 0.065709	 -2.250108	 
0.004800	 0.249886	 0.007539	 0.995607	 0.066874	 -2.250114	 
0.004900	 0.249882	 0.007696	 0.995494	 0.068037	 -2.250119	 
0.005000	 0.249877	 0.007853	 0.995381	 0.069197	 -2.250125	 
0.005100	 0.249872	 0.008010	 0.995266	 0.070354	 -2.250131	 
0.005200	 0.249867	 0.008167	 0.995150	 0.071509	 -2.250137	 
0.005300	 0.249861	 0.008324	 0.995033	 0.072661	 -2.250144	 
0.005400	 0.249856	 0.008481	 0.994914	 0.073811	 -2.250150	 
0.005500	 0.249851	 0.008638	 0.994795	 0.074959	 -2.250156	 
0.005600	 0.249845	 0.008795	 0.994674	 0.076103	 -2.250163	 
0.005700	 0.249840	 0.008952	 0.994552	 0.077246	 -2.250169	 
0.005800	 0.249834	 0.009109	 0.994429	 0.078386	 -2.250176	 
0.005900	 0.249828	 0.009266	 0.994305	 0.079524	 -2.250182	 
0.006000	 0.249822	 0.009423	 0.994179	 0.080659	 -2.250189	 
0.006100	 0.249816	 0.009580	 0.994053	 0.081792	 -2.250196	 
0.006200	 0.249810	 0.009736	 0.993925	 0.082923	 -2.250203	 
0.006300	 0.249804	 0.009893	 0.993796	 0.084051	 -2.250210	 
0.006400	 0.249798	 0.010050	 0.993666	 0.085178	 -2.250217	 
0.006500	 0.249792	 0.010207	 0.993535	 0.086302	 -2.250224	 
0.006600	 0.249785	 0.010364	 0.993403	 0.087424	 -2.250231	 
0.006700	 0.249779	 0.010521	 0.993270	 0.088544	 -2.250238	 
0.006800	 0.249772	 0.010678	 0.993135	 0.089662	 -2.250246	 
0.006900	 0.249765	 0.010835	 0.993000	 0.090777	 -2.250253	 
0.007000	 0.249758	 0.010992	 0.992863	 0.091891	 -2.250261	 
0.007100	 0.249751	 0.011149	 0.992726	 0.093003	 -2.250268	 
0.007200	 0.249744	 0.011306	 0.992587	 0.094112	 -2.250276	 
0.007300	 0.249737	 0.011463	 0.992447	 0.095220	 -2.250284	 
0.007400	 0.249730	 0.011620	 0.992306	 0.096325	 -2.250292	 
0.007500	 0.249722	 0.011777	 0.992164	 0.097429	 -2.250299	 
0.007600	 0.249715	 0.011934	 0.992021	 0.098530	 -2.250307	 
0.007700	 0.249707	 0.012090	 0.991877	 0.099630	 -2.250316	 
0.007800	 0.249700	 0.012247	 0.991731	 0.100728	 -2.250324	 
0.007900	 0.249692	 0.012404	 0.991585	 0.101824	 -2.250332	 
0.008000	 0.249684	 0.012561	 0.991438	 0.102918	 -2.250340	 
0.008100	 0.249676	 0.012718	 0.991289	 0.104010	 -2.250349	 
0.008200	 0.249668	 0.012875	 0.991140	 0.105100	 -2.250357	 
0.008300	 0.249660	 0.013032	 0.990990	 0.106189	 -2.250365	 
0.008400	 0.249652	 0.013189	 0.990838	 0.107275	 -2.250374	 
0.008500	 0.249644	 0.013345	 0.990686	 0.108360	 -2.250383	 
0.008600	 0.249635	 0.013502	 0.990532	 0.109443	 -2.250391	 
0.008700	 0.249627	 0.013659	 0.990378	 0.110524	 -2.250400	 
0.008800	 0.249618	 0.013816	 0.990222	 0.111603	 -2.250409	 
0.008900	 0.249609	 0.013973	 0.990065	 0.112681	 -2.250418	 
0.009000	 0.249600	 0.014130	 0.989908	 0.113757	 -2.250427	 
0.009100	 0.249591	 0.014286	 0.989749	 0.114831	 -2.250436	 
0.009200	 0.249582	 0.014443	 0.989590	 0.115904	 -2.250445	 
0.009300	 0.249573	 0.014600	 0.989429	 0.116974	 -2.250455	 
0.009400	 0.249564	 0.014757	 0.989268	 0.118043	 -2.250464	 
0.009500	 0.249555	 0.014914	 0.989105	 0.119111	 -2.250473	 
0.009600	 0.249545	 0.015071	 0.988942	 0.120176	 -2.250483	 
0.009700	 0.249536	 0.015227	 0.988777	 0.121240	 -2.250492	 
0.009800	 0.249526	 0.015384	 0.988612	 0.122303	 -2.250502	 
0.009900	 0.249516	 0.015541	 0.988445	 0.123363	 -2.250511	 
0.010000	 0.249507	 0.015698	 0.988278	 0.124422	 -2.250521	 
0.010100	 0.249497	 0.015854	 0.988109	 0.125479	 -2.250531	 
0.010200	 0.249487	 0.016011	 0.987940	 0.126535	 -2.250541	 
0.010300	 0.249477	 0.016168	 0.987770	 0.127589	 -2.250551	 
0.010400	 0.249466	 0.016325	 0.987599	 0.128642	 -2.250561	 
0.010500	 0.249456	 0.016481	 0.987427	 0.129693	 -2.250571	 
0.010600	 0.249446	 0.016638	 0.987254	 0.130742	 -2.250581	 
0.010700	 0.249435	 0.016795	 0.987079	 0.131790	 -2.250591	 
0.010800	 0.249425	 0.016952	 0.986905	 0.132836	 -2.250601	 
0.010900	 0.249414	 0.017108	 0.986729	 0.133881	 -2.250612	 
0.011000	 0.249403	 0.017265	 0.986552	 0.134924	 -2.250622	 
0.011100	 0.249392	 0.017422	 0.986374	 0.135965	 -2.250633	 
0.011200	 0.249381	 0.017578	 0.986195	 0.137005	 -2.250643	 
0.011300	 0.249370	 0.017735	 0.986016	 0.138043	 -2.250654	 
0.011400	 0.249359	 0.017892	 0.985835	 0.139080	 -2.250664	 
0.011500	 0.249348	 0.018048	 0.985654	 0.140115	 -2.250675	 
0.011600	 0.249336	 0.018205	 0.985472	 0.141149	 -2.250686	 
0.011700	 0.249325	 0.018362	 0.985289	 0.142182	 -2.250697	 
0.011800	 0.249313	 0.018518	 0.985104	 0.143212	 -2.250708	 
0.011900	 0.249302	 0.018675	 0.984919	 0.144242	 -2.250719	 
0.012000	 0.249290	 0.018832	 0.984734	 0.145269	 -2.250730	 
0.012100	 0.249278	 0.018988	 0.984547	 0.146296	 -2.250741	 
0.012200	 0.249266	 0.019145	 0.984359	 0.147320	 -2.250752	 
0.012300	 0.249254	 0.019302	 0.984171	 0.148344	 -2.250763	 
0.012400	 0.249242	 0.019458	 0.983981	 0.149366	 -2.250775	 
0.012500	 0.249229	 0.019615	 0.983791	 0.150386	 -2.250786	 
0.012600	 0.249217	 0.019771	 0.983600	 0.151405	 -2.250798	 
0.012700	 0.249204	 0.019928	 0.983408	 0.152422	 -2.250809	 
0.012800	 0.249192	 0.020085	 0.983215	 0.153438	 -2.250821	 
0.012900	 0.249179	 0.020241	 0.983021	 0.154453	 -2.250832	 
0.013000	 0.249166	 0.020398	 0.982827	 0.155466	 -2.250844	 
0.013100	 0.249154	 0.020554	 0.982631	 0.156478	 -2.250856	 
0.013200	 0.249141	 0.020711	 0.982435	 0.157488	 -2.250868	 
0.013300	 0.249128	 0.020867	 0.982238	 0.158497	 -2.250880	 
0.013400	 0.249114	 0.021024	 0.982040	 0.159504	 -2.250892	 
0.013500	 0.249101	 0.021180	 0.981841	 0.160510	 -2.250904	 
0.013600	 0.249088	 0.021337	 0.981642	 0.161515	 -2.250916	 
0.013700	 0.249074	 0.021493	 0.981441	 0.162518	 -2.250928	 
0.013800	 0.249061	 0.021650	 0.981240	 0.163520	 -2.250940	 
0.013900	 0.249047	 0.021806	 0.981038	 0.164520	 -2.250952	 
0.014000	 0.249033	 0.021963	 0.980835	 0.165519	 -2.250965	 
0.014100	 0.249020	 0.022119	 0.980631	 0.166517	 -2.250977	 
0.014200	 0.249006	 0.022276	 0.980427	 0.167513	 -2.250989	 
0.014300	 0.248992	 0.022432	 0.980221	 0.168508	 -2.251002	 
0.014400	 0.248977	 0.022589	 0.980015	 0.169502	 -2.251015	 
0.014500	 0.248963	 0.022745	 0.979808	 0.170494	 -2.251027	 
0.014600	 0.248949	 0.022901	 0.979600	 0.171485	 -2.251040	 
0.014700	 0.248934	 0.023058	 0.979392	 0.172474	 -2.251053	 
0.014800	 0.248920	 0.023214	 0.979182	 0.173462	 -2.251066	 
0.014900	 0.248905	 0.023371	 0.978972	 0.174449	 -2.251078	 
0.015000	 0.248890	 0.023527	 0.978761	 0.175434	 -2.251091	 
0.015100	 0.248876	 0.023683	 0.978549	 0.176418	 -2.251104	 
0.015200	 0.248861	 0.023840	 0.978337	 0.177401	 -2.251117	 
0.015300	 0.248846	 0.023996	 0.978123	 0.178382	 -2.251130	 
0.015400	 0.248831	 0.024153	 0.977909	 0.179362	 -2.251144	 
0.015500	 0.248815	 0.024309	 0.977694	 0.180340	 -2.251157	 
0.015600	 0.248800	 0.024465	 0.977479	 0.181318	 -2.251170	 
0.015700	 0.248785	 0.024622	 0.977262	 0.182294	 -2.251184	 
0.015800	 0.248769	 0.024778	 0.977045	 0.183268	 -2.251197	 
0.015900	 0.248753	 0.024934	 0.976827	 0.184242	 -2.251210	 
0.016000	 0.248738	 0.025090	 0.976609	 0.185214	 -2.251224	 
0.016100	 0.248722	 0.025247	 0.976389	 0.186184	 -2.251237	 
0.016200	 0.248706	 0.025403	 0.976169	 0.187154	 -2.251251	 
0.016300	 0.248690	 0.025559	 0.975948	 0.188122	 -2.251265	 
0.016400	 0.248674	 0.025715	 0.975726	 0.189089	 -2.251279	 
0.016500	 0.248658	 0.025872	 0.975504	 0.190054	 -2.251292	 
0.016600	 0.248641	 0.026028	 0.975281	 0.191018	 -2.251306	 
0.016700	 0.248625	 0.026184	 0.975057	 0.191981	 -2.251320	 
0.016800	 0.248608	 0.026340	 0.974832	 0.192943	 -2.251334	 
0.016900	 0.248592	 0.026497	 0.974607	 0.193903	 -2.251348	 
0.017000	 0.248575	 0.026653	 0.974380	 0.194862	 -2.251362	 
0.017100	 0.248558	 0.026809	 0.974154	 0.195820	 -2.251376	 
0.017200	 0.248542	 0.026965	 0.973926	 0.196777	 -2.251391	 
0.017300	 0.248525	 0.027121	 0.973698	 0.197732	 -2.251405	 
0.017400	 0.248507	 0.027277	 0.973469	 0.198686	 -2.251419	 
0.017500	 0.248490	 0.027434	 0.973239	 0.199639	 -2.251434	 
0.017600	 0.248473	 0.027590	 0.973008	 0.200590	 -2.251448	 
0.017700	 0.248456	 0.027746	 0.972777	 0.201540	 -2.251462	 
0.017800	 0.248438	 0.027902	 0.972545	 0.202489	 -2.251477	 
0.017900	 0.248421	 0.028058	 0.972313	 0.203437	 -2.251492	 
0.018000	 0.248403	 0.028214	 0.972080	 0.204383	 -2.251506	 
0.018100	 0.248385	 0.028370	 0.971846	 0.205328	 -2.251521	 
0.018200	 0.248367	 0.028526	 0.971611	 0.206272	 -2.251536	 
0.018300	 0.248349	 0.028682	 0.971376	 0.207215	 -2.251550	 
0.018400	 0.248331	 0.028838	 0.971139	 0.208156	 -2.251565	 
0.018500	 0.248313	 0.028994	 0.970903	 0.209097	 -2.251580	 
0.018600	 0.248295	 0.029150	 0.970665	 0.210036	 -2.251595	 
0.018700	 0.248276	 0.029306	 0.970427	 0.210973	 -2.251610	 
0.018800	 0.248258	 0.029462	 0.970188	 0.211910	 -2.251625	 
0.018900	 0.248239	 0.029618	 0.969949	 0.212845	 -2.251640	 
0.019000	 0.248221	 0.029774	 0.969709	 0.213779	 -2.251656	 
0.019100	 0.248202	 0.029930	 0.969468	 0.214712	 -2.251671	 
0.019200	 0.248183	 0.030086	 0.969226	 0.215644	 -2.251686	 
0.019300	 0.248164	 0.030242	 0.968984	 0.216574	 -2.251701	 
0.019400	 0.248145	 0.030398	 0.968741	 0.217503	 -2.251717	 
0.019500	 0.248126	 0.030554	 0.968498	 0.218431	 -2.251732	 
0.019600	 0.248107	 0.030710	 0.968254	 0.219358	 -2.251748	 
0.019700	 0.248087	 0.030866	 0.968009	 0.220283	 -2.251763	 
0.019800	 0.248068	 0.031022	 0.967763	 0.221208	 -2.251779	 
0.019900	 0.248048	 0.031177	 0.967517	 0.222131	 -2.251794	 
0.020000	 0.248029	 0.031333	 0.967270	 0.223053	 -2.251810	 
0.020100	 0.248009	 0.031489	 0.967023	 0.223974	 -2.251826	 
0.020200	 0.247989	 0.031645	 0.966775	 0.224893	 -2.251842	 
0.020300	 0.247969	 0.031801	 0.966526	 0.225812	 -2.251858	 
0.020400	 0.247949	 0.031957	 0.966277	 0.226729	 -2.251873	 
0.020500	 0.247929	 0.032112	 0.966027	 0.227645	 -2.251889	 
0.020600	 0.247909	 0.032268	 0.965776	 0.228560	 -2.251905	 
0.020700	 0.247888	 0.032424	 0.965525	 0.229473	 -2.251921	 
0.020800	 0.247868	 0.032580	 0.965273	 0.230386	 -2.251938	 
0.020900	 0.247848	 0.032735	 0.965021	 0.231297	 -2.251954	 
0.021000	 0.247827	 0.032891	 0.964768	 0.232207	 -2.251970	 
0.021100	 0.247806	 0.033047	 0.964514	 0.233116	 -2.251986	 
0.021200	 0.247785	 0.033202	 0.964259	 0.234024	 -2.252002	 
0.021300	 0.247764	 0.033358	 0.964004	 0.234931	 -2.252019	 
0.021400	 0.247743	 0.033514	 0.963749	 0.235836	 -2.252035	 
0.021500	 0.247722	 0.033669	 0.963493	 0.236740	 -2.252052	 
0.021600	 0.247701	 0.033825	 0.963236	 0.237644	 -2.252068	 
0.021700	 0.247680	 0.033981	 0.962978	 0.238546	 -2.252085	 
0.021800	 0.247658	 0.034136	 0.962720	 0.239446	 -2.252101	 
0.021900	 0.247637	 0.034292	 0.962462	 0.240346	 -2.252118	 
0.022000	 0.247615	 0.034448	 0.962202	 0.241245	 -2.252135	 
0.022100	 0.247594	 0.034603	 0.961942	 0.242142	 -2.252151	 
0.022200	 0.247572	 0.034759	 0.961682	 0.243038	 -2.252168	 
0.022300	 0.247550	 0.034914	 0.961421	 0.243933	 -2.252185	 
0.022400	 0.247528	 0.035070	 0.961159	 0.244827	 -2.252202	 
0.022500	 0.247506	 0.035225	 0.960897	 0.245720	 -2.252219	 
0.022600	 0.247484	 0.035381	 0.960634	 0.246612	 -2.252236	 
0.022700	 0.247461	 0.035536	 0.960371	 0.247502	 -2.252253	 
0.022800	 0.247439	 0.035692	 0.960107	 0.248392	 -2.252270	 
0.022900	 0.247417	 0.035847	 0.959842	 0.249280	 -2.252287	 
0.023000	 0.247394	 0.036003	 0.959577	 0.250167	 -2.252304	 
0.023100	 0.247371	 0.036158	 0.959311	 0.251053	 -2.252321	 
0.023200	 0.247349	 0.036314	 0.959045	 0.251938	 -2.252338	 
0.023300	 0.247326	 0.036469	 0.958778	 0.252822	 -2.252356	 
0.023400	 0.247303	 0.036624	 0.958511	 0.253705	 -2.252373	 
0.023500	 0.247280	 0.036780	 0.958243	 0.254586	 -2.252390	 
0.023600	 0.247257	 0.036935	 0.957974	 0.255467	 -2.252408	 
0.023700	 0.247233	 0.037090	 0.957705	 0.256346	 -2.252425	 
0.023800	 0.247210	 0.037246	 0.957435	 0.257224	 -2.252443	 
0.023900	 0.247186	 0.037401	 0.957165	 0.258101	 -2.252460	 
0.024000	 0.247163	 0.037556	 0.956894	 0.258977	 -2.252478	 
0.024100	 0.247139	 0.037712	 0.956623	 0.259852	 -2.252496	 
0.024200	 0.247116	 0.037867	 0.956351	 0.260726	 -2.252513	 
0.024300	 0.247092	 0.038022	 0.956078	 0.261599	 -2.252531	 
0.024400	 0.247068	 0.038177	 0.955805	 0.262470	 -2.252549	 
0.024500	 0.247044	 0.038333	 0.955532	 0.263341	 -2.252567	 
0.024600	 0.247020	 0.038488	 0.955258	 0.264210	 -2.252585	 
0.024700	 0.246995	 0.038643	 0.954983	 0.265078	 -2.252603	 
0.024800	 0.246971	 0.038798	 0.954708	 0.265946	 -2.252621	 
0.024900	 0.246947	 0.038953	 0.954432	 0.266812	 -2.252639	 
0.025000	 0.246922	 0.039109	 0.954156	 0.267677	 -2.252657	 
0.025100	 0.246897	 0.039264	 0.953879	 0.268541	 -2.252675	 
0.025200	 0.246873	 0.039419	 0.953602	 0.269404	 -2.252693	 
0.025300	 0.246848	 0.039574	 0.953324	 0.270266	 -2.252711	 
0.025400	 0.246823	 0.039729	 0.953045	 0.271126	 -2.252729	 
0.025500	 0.246798	 0.039884	 0.952766	 0.271986	 -2.252748	 
0.025600	 0.246773	 0.040039	 0.952487	 0.272845	 -2.252766	 
0.025700	 0.246748	 0.040194	 0.952207	 0.273702	 -2.252784	 
0.025800	 0.246722	 0.040349	 0.951926	 0.274559	 -2.252803	 
0.025900	 0.246697	 0.040504	 0.951645	 0.275414	 -2.252821	 
0.026000	 0.246671	 0.040659	 0.951364	 0.276268	 -2.252840	 
0.026100	 0.246646	 0.040814	 0.951082	 0.277122	 -2.252858	 
0.026200	 0.246620	 0.040969	 0.950799	 0.277974	 -2.252877	 
0.026300	 0.246594	 0.041124	 0.950516	 0.278825	 -2.252895	 
0.026400	 0.246569	 0.041279	 0.950233	 0.279675	 -2.252914	 
0.026500	 0.246543	 0.041434	 0.949948	 0.280524	 -2.252933	 
0.026600	 0.246516	 0.041589	 0.949664	 0.281372	 -2.252952	 
0.026700	 0.246490	 0.041744	 0.949379	 0.282219	 -2.252970	 
0.026800	 0.246464	 0.041899	 0.949093	 0.283065	 -2.252989	 
0.026900	 0.246438	 0.042054	 0.948807	 0.283910	 -2.253008	 
0.027000	 0.246411	 0.042208	 0.948520	 0.284754	 -2.253027	 
0.027100	 0.246385	 0.042363	 0.948233	 0.285596	 -2.253046	 
0.027200	 0.246358	 0.042518	 0.947946	 0.286438	 -2.253065	 
0.027300	 0.246331	 0.042673	 0.947658	 0.287279	 -2.253084	 
0.027400	 0.246304	 0.042828	 0.947369	 0.288118	 -2.253103	 
0.027500	 0.246277	 0.042982	 0.947080	 0.288957	 -2.253122	 
0.027600	 0.246250	 0.043137	 0.946790	 0.289794	 -2.253141	 
0.027700	 0.246223	 0.043292	 0.946500	 0.290631	 -2.253160	 
0.027800	 0.246196	 0.043446	 0.946210	 0.291466	 -2.253180	 
0.027900	 0.246169	 0.043601	 0.945919	 0.292301	 -2.253199	 
0.028000	 0.246141	 0.043756	 0.945627	 0.293134	 -2.253218	 
0.028100	 0.246114	 0.043910	 0.945335	 0.293967	 -2.253238	 
0.028200	 0.246086	 0.044065	 0.945043	 0.294798	 -2.253257	 
0.028300	 0.246058	 0.044220	 0.944750	 0.295629	 -2.253276	 
0.028400	 0.246030	 0.044374	 0.944457	 0.296458	 -2.253296	 
0.028500	 0.246002	 0.044529	 0.944163	 0.297286	 -2.253315	 
0.028600	 0.245974	 0.044683	 0.943868	 0.298114	 -2.253335	 
0.028700	 0.245946	 0.044838	 0.943574	 0.298940	 -2.253355	 
0.028800	 0.245918	 0.044992	 0.943278	 0.299765	 -2.253374	 
0.028900	 0.245890	 0.045147	 0.942983	 0.300589	 -2.253394	 
0.029000	 0.245861	 0.045301	 0.942686	 0.301413	 -2.253414	 
0.029100	 0.245833	 0.045456	 0.942390	 0.302235	 -2.253433	 
0.029200	 0.245804	 0.045610	 0.942093	 0.303056	 -2.253453	 
0.029300	 0.245775	 0.045765	 0.941795	 0.303877	 -2.253473	 
0.029400	 0.245747	 0.045919	 0.941497	 0.304696	 -2.253493	 
0.029500	 0.245718	 0.046074	 0.941199	 0.305514	 -2.253513	 
0.029600	 0.245689	 0.046228	 0.940900	 0.306331	 -2.253533	 
0.029700	 0.245660	 0.046382	 0.940600	 0.307148	 -2.253553	 
0.029800	 0.245630	 0.046537	 0.940300	 0.307963	 -2.253573	 
0.029900	 0.245601	 0.046691	 0.940000	 0.308777	 -2.253593	 
0.030000	 0.245572	 0.046845	 0.939699	 0.309591	 -2.253613	 
0.030100	 0.245542	 0.047000	 0.939398	 0.310403	 -2.253633	 
0.030200	 0.245513	 0.047154	 0.939097	 0.311214	 -2.253653	 
0.030300	 0.245483	 0.047308	 0.938795	 0.312025	 -2.253673	 
0.030400	 0.245453	 0.047462	 0.938492	 0.312834	 -2.253694	 
0.030500	 0.245423	 0.047617	 0.938189	 0.313642	 -2.253714	 
0.030600	 0.245393	 0.047771	 0.937886	 0.314450	 -2.253734	 
0.030700	 0.245363	 0.047925	 0.937582	 0.315256	 -2.253754	 
0.030800	 0.245333	 0.048079	 0.937278	 0.316062	 -2.253775	 
0.030900	 0.245303	 0.048233	 0.936973	 0.316866	 -2.253795	 
0.031000	 0.245273	 0.048387	 0.936668	 0.317669	 -2.253816	 
0.031100	 0.245242	 0.048541	 0.936362	 0.318472	 -2.253836	 
0.031200	 0.245212	 0.048696	 0.936057	 0.319274	 -2.253857	 
0.031300	 0.245181	 0.048850	 0.935750	 0.320074	 -2.253877	 
0.031400	 0.245150	 0.049004	 0.935443	 0.320874	 -2.253898	 
0.031500	 0.245119	 0.049158	 0.935136	 0.321672	 -2.253919	 
