
theta(h[:])	 h[0]	 h[1]	 <m[0]>	 <m[1]>	 <E>	 dim_{Lat}=2	 L=128,128	 J=1.000000,1.000000	 {/Symbol s}_J=0.000000,0.000000	 <J_{ij}>=0.000000,0.000000	 dim_(Spin}=2	 h=-,0.000000	 {/Symbol s}_h=0.500000,0.000000	 <h_i>=0.002450,0.000000	 order=1.000000,0.000000	 order_h=0	 order_r=1	 MCS/{/Symbol d}h=1/0.000100	 

Updating all (first)black/(then)white checkerboard sites simultaneously.. 
0.000000	 0.250000	 0.000000	 0.999881	 0.001158	 -2.252452	 
0.000100	 0.250000	 0.000157	 0.999875	 0.002345	 -2.252452	 
0.000200	 0.250000	 0.000314	 0.999867	 0.003530	 -2.252452	 
0.000300	 0.250000	 0.000471	 0.999857	 0.004714	 -2.252453	 
0.000400	 0.249999	 0.000628	 0.999845	 0.005897	 -2.252453	 
0.000500	 0.249999	 0.000785	 0.999831	 0.007079	 -2.252454	 
0.000600	 0.249998	 0.000942	 0.999816	 0.008259	 -2.252454	 
0.000700	 0.249998	 0.001100	 0.999799	 0.009438	 -2.252455	 
0.000800	 0.249997	 0.001257	 0.999780	 0.010615	 -2.252456	 
0.000900	 0.249996	 0.001414	 0.999759	 0.011791	 -2.252457	 
0.001000	 0.249995	 0.001571	 0.999736	 0.012966	 -2.252458	 
0.001100	 0.249994	 0.001728	 0.999712	 0.014139	 -2.252459	 
0.001200	 0.249993	 0.001885	 0.999686	 0.015310	 -2.252460	 
0.001300	 0.249992	 0.002042	 0.999658	 0.016480	 -2.252461	 
0.001400	 0.249990	 0.002199	 0.999629	 0.017648	 -2.252463	 
0.001500	 0.249989	 0.002356	 0.999597	 0.018815	 -2.252464	 
0.001600	 0.249987	 0.002513	 0.999564	 0.019980	 -2.252466	 
0.001700	 0.249986	 0.002670	 0.999530	 0.021143	 -2.252467	 
0.001800	 0.249984	 0.002827	 0.999493	 0.022305	 -2.252469	 
0.001900	 0.249982	 0.002984	 0.999455	 0.023465	 -2.252471	 
0.002000	 0.249980	 0.003142	 0.999415	 0.024623	 -2.252473	 
0.002100	 0.249978	 0.003299	 0.999374	 0.025780	 -2.252474	 
0.002200	 0.249976	 0.003456	 0.999331	 0.026935	 -2.252476	 
0.002300	 0.249974	 0.003613	 0.999287	 0.028089	 -2.252479	 
0.002400	 0.249972	 0.003770	 0.999240	 0.029241	 -2.252481	 
0.002500	 0.249969	 0.003927	 0.999193	 0.030391	 -2.252483	 
0.002600	 0.249967	 0.004084	 0.999143	 0.031540	 -2.252485	 
0.002700	 0.249964	 0.004241	 0.999092	 0.032687	 -2.252488	 
0.002800	 0.249961	 0.004398	 0.999040	 0.033832	 -2.252490	 
0.002900	 0.249958	 0.004555	 0.998986	 0.034976	 -2.252493	 
0.003000	 0.249956	 0.004712	 0.998930	 0.036119	 -2.252496	 
0.003100	 0.249953	 0.004869	 0.998873	 0.037260	 -2.252498	 
0.003200	 0.249949	 0.005026	 0.998815	 0.038399	 -2.252501	 
0.003300	 0.249946	 0.005183	 0.998755	 0.039537	 -2.252504	 
0.003400	 0.249943	 0.005340	 0.998693	 0.040673	 -2.252507	 
0.003500	 0.249940	 0.005497	 0.998630	 0.041807	 -2.252510	 
0.003600	 0.249936	 0.005654	 0.998565	 0.042941	 -2.252513	 
0.003700	 0.249932	 0.005811	 0.998499	 0.044072	 -2.252517	 
0.003800	 0.249929	 0.005968	 0.998432	 0.045202	 -2.252520	 
0.003900	 0.249925	 0.006125	 0.998363	 0.046331	 -2.252523	 
0.004000	 0.249921	 0.006283	 0.998293	 0.047458	 -2.252527	 
0.004100	 0.249917	 0.006440	 0.998221	 0.048584	 -2.252530	 
0.004200	 0.249913	 0.006597	 0.998148	 0.049708	 -2.252534	 
0.004300	 0.249909	 0.006754	 0.998073	 0.050831	 -2.252538	 
0.004400	 0.249904	 0.006911	 0.997997	 0.051952	 -2.252541	 
0.004500	 0.249900	 0.007068	 0.997919	 0.053071	 -2.252545	 
0.004600	 0.249896	 0.007225	 0.997841	 0.054190	 -2.252549	 
0.004700	 0.249891	 0.007382	 0.997760	 0.055307	 -2.252553	 
0.004800	 0.249886	 0.007539	 0.997679	 0.056422	 -2.252557	 
0.004900	 0.249882	 0.007696	 0.997596	 0.057536	 -2.252562	 
0.005000	 0.249877	 0.007853	 0.997512	 0.058648	 -2.252566	 
0.005100	 0.249872	 0.008010	 0.997426	 0.059759	 -2.252570	 
0.005200	 0.249867	 0.008167	 0.997339	 0.060869	 -2.252574	 
0.005300	 0.249861	 0.008324	 0.997251	 0.061977	 -2.252579	 
0.005400	 0.249856	 0.008481	 0.997161	 0.063084	 -2.252584	 
0.005500	 0.249851	 0.008638	 0.997070	 0.064189	 -2.252588	 
0.005600	 0.249845	 0.008795	 0.996977	 0.065293	 -2.252593	 
0.005700	 0.249840	 0.008952	 0.996884	 0.066396	 -2.252598	 
0.005800	 0.249834	 0.009109	 0.996789	 0.067497	 -2.252602	 
0.005900	 0.249828	 0.009266	 0.996693	 0.068597	 -2.252607	 
0.006000	 0.249822	 0.009423	 0.996595	 0.069695	 -2.252612	 
0.006100	 0.249816	 0.009580	 0.996496	 0.070792	 -2.252617	 
0.006200	 0.249810	 0.009736	 0.996396	 0.071887	 -2.252623	 
0.006300	 0.249804	 0.009893	 0.996295	 0.072982	 -2.252628	 
0.006400	 0.249798	 0.010050	 0.996192	 0.074074	 -2.252633	 
0.006500	 0.249792	 0.010207	 0.996088	 0.075166	 -2.252639	 
0.006600	 0.249785	 0.010364	 0.995983	 0.076256	 -2.252644	 
0.006700	 0.249779	 0.010521	 0.995877	 0.077345	 -2.252650	 
0.006800	 0.249772	 0.010678	 0.995769	 0.078432	 -2.252655	 
0.006900	 0.249765	 0.010835	 0.995660	 0.079518	 -2.252661	 
0.007000	 0.249758	 0.010992	 0.995550	 0.080602	 -2.252666	 
0.007100	 0.249751	 0.011149	 0.995439	 0.081686	 -2.252672	 
0.007200	 0.249744	 0.011306	 0.995326	 0.082768	 -2.252678	 
0.007300	 0.249737	 0.011463	 0.995212	 0.083848	 -2.252684	 
0.007400	 0.249730	 0.011620	 0.995097	 0.084927	 -2.252690	 
0.007500	 0.249722	 0.011777	 0.994981	 0.086005	 -2.252696	 
0.007600	 0.249715	 0.011934	 0.994864	 0.087082	 -2.252702	 
0.007700	 0.249707	 0.012090	 0.994745	 0.088157	 -2.252709	 
0.007800	 0.249700	 0.012247	 0.994626	 0.089231	 -2.252715	 
0.007900	 0.249692	 0.012404	 0.994505	 0.090303	 -2.252721	 
0.008000	 0.249684	 0.012561	 0.994383	 0.091374	 -2.252728	 
0.008100	 0.249676	 0.012718	 0.994259	 0.092444	 -2.252734	 
0.008200	 0.249668	 0.012875	 0.994135	 0.093512	 -2.252741	 
0.008300	 0.249660	 0.013032	 0.994009	 0.094580	 -2.252748	 
0.008400	 0.249652	 0.013189	 0.993883	 0.095645	 -2.252754	 
0.008500	 0.249644	 0.013345	 0.993755	 0.096710	 -2.252761	 
0.008600	 0.249635	 0.013502	 0.993626	 0.097773	 -2.252768	 
0.008700	 0.249627	 0.013659	 0.993496	 0.098835	 -2.252775	 
0.008800	 0.249618	 0.013816	 0.993364	 0.099895	 -2.252782	 
0.008900	 0.249609	 0.013973	 0.993232	 0.100955	 -2.252789	 
0.009000	 0.249600	 0.014130	 0.993098	 0.102012	 -2.252796	 
0.009100	 0.249591	 0.014286	 0.992964	 0.103069	 -2.252803	 
0.009200	 0.249582	 0.014443	 0.992828	 0.104124	 -2.252811	 
0.009300	 0.249573	 0.014600	 0.992691	 0.105178	 -2.252818	 
0.009400	 0.249564	 0.014757	 0.992553	 0.106231	 -2.252825	 
0.009500	 0.249555	 0.014914	 0.992414	 0.107282	 -2.252833	 
0.009600	 0.249545	 0.015071	 0.992274	 0.108332	 -2.252840	 
0.009700	 0.249536	 0.015227	 0.992133	 0.109381	 -2.252848	 
0.009800	 0.249526	 0.015384	 0.991991	 0.110429	 -2.252856	 
0.009900	 0.249516	 0.015541	 0.991847	 0.111475	 -2.252864	 
0.010000	 0.249507	 0.015698	 0.991703	 0.112520	 -2.252871	 
0.010100	 0.249497	 0.015854	 0.991557	 0.113563	 -2.252879	 
0.010200	 0.249487	 0.016011	 0.991411	 0.114605	 -2.252887	 
0.010300	 0.249477	 0.016168	 0.991263	 0.115646	 -2.252895	 
0.010400	 0.249466	 0.016325	 0.991115	 0.116686	 -2.252903	 
0.010500	 0.249456	 0.016481	 0.990965	 0.117724	 -2.252912	 
0.010600	 0.249446	 0.016638	 0.990814	 0.118762	 -2.252920	 
0.010700	 0.249435	 0.016795	 0.990662	 0.119797	 -2.252928	 
0.010800	 0.249425	 0.016952	 0.990510	 0.120832	 -2.252936	 
0.010900	 0.249414	 0.017108	 0.990356	 0.121865	 -2.252945	 
0.011000	 0.249403	 0.017265	 0.990201	 0.122897	 -2.252953	 
0.011100	 0.249392	 0.017422	 0.990045	 0.123928	 -2.252962	 
0.011200	 0.249381	 0.017578	 0.989888	 0.124957	 -2.252970	 
0.011300	 0.249370	 0.017735	 0.989730	 0.125986	 -2.252979	 
0.011400	 0.249359	 0.017892	 0.989571	 0.127012	 -2.252988	 
0.011500	 0.249348	 0.018048	 0.989412	 0.128038	 -2.252997	 
0.011600	 0.249336	 0.018205	 0.989251	 0.129062	 -2.253006	 
0.011700	 0.249325	 0.018362	 0.989089	 0.130085	 -2.253014	 
0.011800	 0.249313	 0.018518	 0.988926	 0.131107	 -2.253023	 
0.011900	 0.249302	 0.018675	 0.988762	 0.132128	 -2.253033	 
0.012000	 0.249290	 0.018832	 0.988597	 0.133147	 -2.253042	 
0.012100	 0.249278	 0.018988	 0.988431	 0.134165	 -2.253051	 
0.012200	 0.249266	 0.019145	 0.988265	 0.135182	 -2.253060	 
0.012300	 0.249254	 0.019302	 0.988097	 0.136197	 -2.253069	 
0.012400	 0.249242	 0.019458	 0.987928	 0.137212	 -2.253079	 
0.012500	 0.249229	 0.019615	 0.987759	 0.138225	 -2.253088	 
0.012600	 0.249217	 0.019771	 0.987588	 0.139236	 -2.253098	 
0.012700	 0.249204	 0.019928	 0.987416	 0.140247	 -2.253107	 
0.012800	 0.249192	 0.020085	 0.987244	 0.141256	 -2.253117	 
0.012900	 0.249179	 0.020241	 0.987071	 0.142264	 -2.253127	 
0.013000	 0.249166	 0.020398	 0.986896	 0.143271	 -2.253136	 
0.013100	 0.249154	 0.020554	 0.986721	 0.144276	 -2.253146	 
0.013200	 0.249141	 0.020711	 0.986545	 0.145281	 -2.253156	 
0.013300	 0.249128	 0.020867	 0.986368	 0.146284	 -2.253166	 
0.013400	 0.249114	 0.021024	 0.986189	 0.147286	 -2.253176	 
0.013500	 0.249101	 0.021180	 0.986010	 0.148286	 -2.253186	 
0.013600	 0.249088	 0.021337	 0.985831	 0.149285	 -2.253196	 
0.013700	 0.249074	 0.021493	 0.985650	 0.150283	 -2.253206	 
0.013800	 0.249061	 0.021650	 0.985468	 0.151280	 -2.253217	 
0.013900	 0.249047	 0.021806	 0.985286	 0.152276	 -2.253227	 
0.014000	 0.249033	 0.021963	 0.985102	 0.153270	 -2.253237	 
0.014100	 0.249020	 0.022119	 0.984918	 0.154263	 -2.253248	 
0.014200	 0.249006	 0.022276	 0.984732	 0.155255	 -2.253258	 
0.014300	 0.248992	 0.022432	 0.984546	 0.156246	 -2.253269	 
0.014400	 0.248977	 0.022589	 0.984359	 0.157236	 -2.253279	 
0.014500	 0.248963	 0.022745	 0.984171	 0.158224	 -2.253290	 
0.014600	 0.248949	 0.022901	 0.983982	 0.159211	 -2.253301	 
0.014700	 0.248934	 0.023058	 0.983793	 0.160197	 -2.253311	 
0.014800	 0.248920	 0.023214	 0.983602	 0.161181	 -2.253322	 
0.014900	 0.248905	 0.023371	 0.983411	 0.162165	 -2.253333	 
0.015000	 0.248890	 0.023527	 0.983219	 0.163147	 -2.253344	 
0.015100	 0.248876	 0.023683	 0.983026	 0.164128	 -2.253355	 
0.015200	 0.248861	 0.023840	 0.982832	 0.165107	 -2.253366	 
0.015300	 0.248846	 0.023996	 0.982637	 0.166086	 -2.253377	 
0.015400	 0.248831	 0.024153	 0.982441	 0.167063	 -2.253388	 
0.015500	 0.248815	 0.024309	 0.982245	 0.168039	 -2.253400	 
0.015600	 0.248800	 0.024465	 0.982047	 0.169014	 -2.253411	 
0.015700	 0.248785	 0.024622	 0.981849	 0.169988	 -2.253422	 
0.015800	 0.248769	 0.024778	 0.981650	 0.170960	 -2.253434	 
0.015900	 0.248753	 0.024934	 0.981450	 0.171932	 -2.253445	 
0.016000	 0.248738	 0.025090	 0.981250	 0.172902	 -2.253457	 
0.016100	 0.248722	 0.025247	 0.981048	 0.173871	 -2.253468	 
0.016200	 0.248706	 0.025403	 0.980846	 0.174839	 -2.253480	 
0.016300	 0.248690	 0.025559	 0.980643	 0.175805	 -2.253492	 
0.016400	 0.248674	 0.025715	 0.980439	 0.176770	 -2.253503	 
0.016500	 0.248658	 0.025872	 0.980234	 0.177735	 -2.253515	 
0.016600	 0.248641	 0.026028	 0.980029	 0.178697	 -2.253527	 
0.016700	 0.248625	 0.026184	 0.979823	 0.179659	 -2.253539	 
0.016800	 0.248608	 0.026340	 0.979616	 0.180620	 -2.253551	 
0.016900	 0.248592	 0.026497	 0.979408	 0.181579	 -2.253563	 
0.017000	 0.248575	 0.026653	 0.979199	 0.182537	 -2.253575	 
0.017100	 0.248558	 0.026809	 0.978990	 0.183495	 -2.253587	 
0.017200	 0.248542	 0.026965	 0.978779	 0.184450	 -2.253599	 
0.017300	 0.248525	 0.027121	 0.978568	 0.185405	 -2.253612	 
0.017400	 0.248507	 0.027277	 0.978357	 0.186359	 -2.253624	 
0.017500	 0.248490	 0.027434	 0.978144	 0.187311	 -2.253636	 
0.017600	 0.248473	 0.027590	 0.977931	 0.188262	 -2.253649	 
0.017700	 0.248456	 0.027746	 0.977717	 0.189212	 -2.253661	 
0.017800	 0.248438	 0.027902	 0.977502	 0.190161	 -2.253674	 
0.017900	 0.248421	 0.028058	 0.977286	 0.191109	 -2.253686	 
0.018000	 0.248403	 0.028214	 0.977070	 0.192055	 -2.253699	 
0.018100	 0.248385	 0.028370	 0.976853	 0.193000	 -2.253712	 
0.018200	 0.248367	 0.028526	 0.976635	 0.193945	 -2.253724	 
0.018300	 0.248349	 0.028682	 0.976416	 0.194888	 -2.253737	 
0.018400	 0.248331	 0.028838	 0.976197	 0.195830	 -2.253750	 
0.018500	 0.248313	 0.028994	 0.975977	 0.196770	 -2.253763	 
0.018600	 0.248295	 0.029150	 0.975756	 0.197710	 -2.253776	 
0.018700	 0.248276	 0.029306	 0.975534	 0.198648	 -2.253789	 
0.018800	 0.248258	 0.029462	 0.975312	 0.199585	 -2.253802	 
0.018900	 0.248239	 0.029618	 0.975089	 0.200522	 -2.253815	 
0.019000	 0.248221	 0.029774	 0.974865	 0.201457	 -2.253828	 
0.019100	 0.248202	 0.029930	 0.974641	 0.202390	 -2.253841	 
0.019200	 0.248183	 0.030086	 0.974415	 0.203323	 -2.253855	 
0.019300	 0.248164	 0.030242	 0.974190	 0.204255	 -2.253868	 
0.019400	 0.248145	 0.030398	 0.973963	 0.205185	 -2.253881	 
0.019500	 0.248126	 0.030554	 0.973736	 0.206114	 -2.253895	 
0.019600	 0.248107	 0.030710	 0.973507	 0.207042	 -2.253908	 
0.019700	 0.248087	 0.030866	 0.973279	 0.207969	 -2.253922	 
0.019800	 0.248068	 0.031022	 0.973049	 0.208895	 -2.253935	 
0.019900	 0.248048	 0.031177	 0.972819	 0.209820	 -2.253949	 
0.020000	 0.248029	 0.031333	 0.972588	 0.210743	 -2.253963	 
0.020100	 0.248009	 0.031489	 0.972357	 0.211666	 -2.253976	 
0.020200	 0.247989	 0.031645	 0.972124	 0.212587	 -2.253990	 
0.020300	 0.247969	 0.031801	 0.971891	 0.213507	 -2.254004	 
0.020400	 0.247949	 0.031957	 0.971658	 0.214426	 -2.254018	 
0.020500	 0.247929	 0.032112	 0.971424	 0.215344	 -2.254032	 
0.020600	 0.247909	 0.032268	 0.971189	 0.216261	 -2.254046	 
0.020700	 0.247888	 0.032424	 0.970953	 0.217177	 -2.254060	 
0.020800	 0.247868	 0.032580	 0.970716	 0.218091	 -2.254074	 
0.020900	 0.247848	 0.032735	 0.970479	 0.219005	 -2.254088	 
0.021000	 0.247827	 0.032891	 0.970242	 0.219917	 -2.254102	 
0.021100	 0.247806	 0.033047	 0.970003	 0.220829	 -2.254116	 
0.021200	 0.247785	 0.033202	 0.969764	 0.221739	 -2.254130	 
0.021300	 0.247764	 0.033358	 0.969525	 0.222648	 -2.254145	 
0.021400	 0.247743	 0.033514	 0.969284	 0.223556	 -2.254159	 
0.021500	 0.247722	 0.033669	 0.969043	 0.224462	 -2.254174	 
0.021600	 0.247701	 0.033825	 0.968802	 0.225368	 -2.254188	 
0.021700	 0.247680	 0.033981	 0.968559	 0.226273	 -2.254203	 
0.021800	 0.247658	 0.034136	 0.968317	 0.227176	 -2.254217	 
0.021900	 0.247637	 0.034292	 0.968073	 0.228079	 -2.254232	 
0.022000	 0.247615	 0.034448	 0.967829	 0.228980	 -2.254246	 
0.022100	 0.247594	 0.034603	 0.967584	 0.229880	 -2.254261	 
0.022200	 0.247572	 0.034759	 0.967338	 0.230779	 -2.254276	 
0.022300	 0.247550	 0.034914	 0.967092	 0.231678	 -2.254291	 
0.022400	 0.247528	 0.035070	 0.966845	 0.232574	 -2.254305	 
0.022500	 0.247506	 0.035225	 0.966598	 0.233470	 -2.254320	 
0.022600	 0.247484	 0.035381	 0.966350	 0.234365	 -2.254335	 
0.022700	 0.247461	 0.035536	 0.966101	 0.235259	 -2.254350	 
0.022800	 0.247439	 0.035692	 0.965852	 0.236151	 -2.254365	 
0.022900	 0.247417	 0.035847	 0.965602	 0.237043	 -2.254380	 
0.023000	 0.247394	 0.036003	 0.965351	 0.237933	 -2.254395	 
0.023100	 0.247371	 0.036158	 0.965100	 0.238823	 -2.254411	 
0.023200	 0.247349	 0.036314	 0.964849	 0.239711	 -2.254426	 
0.023300	 0.247326	 0.036469	 0.964596	 0.240598	 -2.254441	 
0.023400	 0.247303	 0.036624	 0.964343	 0.241485	 -2.254456	 
0.023500	 0.247280	 0.036780	 0.964090	 0.242370	 -2.254472	 
0.023600	 0.247257	 0.036935	 0.963835	 0.243254	 -2.254487	 
0.023700	 0.247233	 0.037090	 0.963581	 0.244137	 -2.254503	 
0.023800	 0.247210	 0.037246	 0.963325	 0.245018	 -2.254518	 
0.023900	 0.247186	 0.037401	 0.963069	 0.245899	 -2.254534	 
0.024000	 0.247163	 0.037556	 0.962813	 0.246779	 -2.254549	 
0.024100	 0.247139	 0.037712	 0.962555	 0.247658	 -2.254565	 
0.024200	 0.247116	 0.037867	 0.962298	 0.248535	 -2.254581	 
0.024300	 0.247092	 0.038022	 0.962039	 0.249412	 -2.254596	 
0.024400	 0.247068	 0.038177	 0.961780	 0.250288	 -2.254612	 
0.024500	 0.247044	 0.038333	 0.961521	 0.251162	 -2.254628	 
0.024600	 0.247020	 0.038488	 0.961261	 0.252035	 -2.254644	 
0.024700	 0.246995	 0.038643	 0.961000	 0.252908	 -2.254660	 
0.024800	 0.246971	 0.038798	 0.960739	 0.253779	 -2.254676	 
0.024900	 0.246947	 0.038953	 0.960477	 0.254649	 -2.254692	 
0.025000	 0.246922	 0.039109	 0.960214	 0.255519	 -2.254708	 
0.025100	 0.246897	 0.039264	 0.959951	 0.256387	 -2.254724	 
0.025200	 0.246873	 0.039419	 0.959688	 0.257254	 -2.254740	 
0.025300	 0.246848	 0.039574	 0.959424	 0.258120	 -2.254756	 
0.025400	 0.246823	 0.039729	 0.959159	 0.258985	 -2.254772	 
0.025500	 0.246798	 0.039884	 0.958894	 0.259849	 -2.254788	 
0.025600	 0.246773	 0.040039	 0.958628	 0.260712	 -2.254805	 
0.025700	 0.246748	 0.040194	 0.958362	 0.261574	 -2.254821	 
0.025800	 0.246722	 0.040349	 0.958095	 0.262435	 -2.254837	 
0.025900	 0.246697	 0.040504	 0.957827	 0.263295	 -2.254854	 
0.026000	 0.246671	 0.040659	 0.957559	 0.264154	 -2.254870	 
0.026100	 0.246646	 0.040814	 0.957291	 0.265012	 -2.254887	 
0.026200	 0.246620	 0.040969	 0.957021	 0.265868	 -2.254903	 
0.026300	 0.246594	 0.041124	 0.956752	 0.266724	 -2.254920	 
0.026400	 0.246569	 0.041279	 0.956482	 0.267579	 -2.254936	 
0.026500	 0.246543	 0.041434	 0.956211	 0.268433	 -2.254953	 
0.026600	 0.246516	 0.041589	 0.955940	 0.269285	 -2.254970	 
0.026700	 0.246490	 0.041744	 0.955668	 0.270137	 -2.254987	 
0.026800	 0.246464	 0.041899	 0.955395	 0.270988	 -2.255003	 
0.026900	 0.246438	 0.042054	 0.955122	 0.271838	 -2.255020	 
0.027000	 0.246411	 0.042208	 0.954849	 0.272686	 -2.255037	 
0.027100	 0.246385	 0.042363	 0.954575	 0.273534	 -2.255054	 
0.027200	 0.246358	 0.042518	 0.954301	 0.274381	 -2.255071	 
0.027300	 0.246331	 0.042673	 0.954026	 0.275226	 -2.255088	 
0.027400	 0.246304	 0.042828	 0.953750	 0.276071	 -2.255105	 
0.027500	 0.246277	 0.042982	 0.953474	 0.276914	 -2.255122	 
0.027600	 0.246250	 0.043137	 0.953197	 0.277757	 -2.255139	 
0.027700	 0.246223	 0.043292	 0.952920	 0.278599	 -2.255156	 
0.027800	 0.246196	 0.043446	 0.952643	 0.279439	 -2.255174	 
0.027900	 0.246169	 0.043601	 0.952365	 0.280279	 -2.255191	 
0.028000	 0.246141	 0.043756	 0.952086	 0.281118	 -2.255208	 
0.028100	 0.246114	 0.043910	 0.951807	 0.281955	 -2.255225	 
0.028200	 0.246086	 0.044065	 0.951527	 0.282792	 -2.255243	 
0.028300	 0.246058	 0.044220	 0.951247	 0.283628	 -2.255260	 
0.028400	 0.246030	 0.044374	 0.950966	 0.284462	 -2.255278	 
0.028500	 0.246002	 0.044529	 0.950685	 0.285296	 -2.255295	 
0.028600	 0.245974	 0.044683	 0.950404	 0.286129	 -2.255313	 
0.028700	 0.245946	 0.044838	 0.950121	 0.286960	 -2.255330	 
0.028800	 0.245918	 0.044992	 0.949839	 0.287791	 -2.255348	 
0.028900	 0.245890	 0.045147	 0.949556	 0.288621	 -2.255365	 
0.029000	 0.245861	 0.045301	 0.949272	 0.289450	 -2.255383	 
0.029100	 0.245833	 0.045456	 0.948988	 0.290277	 -2.255401	 
0.029200	 0.245804	 0.045610	 0.948703	 0.291104	 -2.255418	 
0.029300	 0.245775	 0.045765	 0.948418	 0.291930	 -2.255436	 
0.029400	 0.245747	 0.045919	 0.948133	 0.292755	 -2.255454	 
0.029500	 0.245718	 0.046074	 0.947846	 0.293579	 -2.255472	 
0.029600	 0.245689	 0.046228	 0.947560	 0.294402	 -2.255490	 
0.029700	 0.245660	 0.046382	 0.947273	 0.295224	 -2.255508	 
0.029800	 0.245630	 0.046537	 0.946985	 0.296045	 -2.255526	 
0.029900	 0.245601	 0.046691	 0.946697	 0.296865	 -2.255544	 
0.030000	 0.245572	 0.046845	 0.946409	 0.297684	 -2.255562	 
0.030100	 0.245542	 0.047000	 0.946120	 0.298502	 -2.255580	 
0.030200	 0.245513	 0.047154	 0.945830	 0.299319	 -2.255598	 
0.030300	 0.245483	 0.047308	 0.945541	 0.300135	 -2.255616	 
0.030400	 0.245453	 0.047462	 0.945250	 0.300950	 -2.255634	 
0.030500	 0.245423	 0.047617	 0.944959	 0.301764	 -2.255653	 
0.030600	 0.245393	 0.047771	 0.944668	 0.302578	 -2.255671	 
0.030700	 0.245363	 0.047925	 0.944376	 0.303390	 -2.255689	 
0.030800	 0.245333	 0.048079	 0.944084	 0.304201	 -2.255708	 
0.030900	 0.245303	 0.048233	 0.943791	 0.305012	 -2.255726	 
0.031000	 0.245273	 0.048387	 0.943498	 0.305821	 -2.255744	 
0.031100	 0.245242	 0.048541	 0.943205	 0.306630	 -2.255763	 
0.031200	 0.245212	 0.048696	 0.942911	 0.307438	 -2.255781	 
0.031300	 0.245181	 0.048850	 0.942616	 0.308244	 -2.255800	 
0.031400	 0.245150	 0.049004	 0.942321	 0.309050	 -2.255819	 
0.031500	 0.245119	 0.049158	 0.942026	 0.309855	 -2.255837	 
